    176.00000   1.31080821E-031
    176.20807   2.26745474E-031
    176.41614   3.90985401E-031
    176.62421   6.72067144E-031
    176.83228   1.15160280E-030
    177.04035   1.96715395E-030
    177.24842   3.34986414E-030
    177.45649   5.68691600E-030
    177.66455   9.62486682E-030
    177.87262   1.62400892E-029
    178.08069   2.73190304E-029
    178.28876   4.58176401E-029
    178.49683   7.66122198E-029
    178.70490   1.27722835E-028
    178.91297   2.12300718E-028
    179.12104   3.51847099E-028
    179.32911   5.81410979E-028
    179.53718   9.57957673E-028
    179.74525   1.57380276E-027
    179.95332   2.57811440E-027
    180.16139   4.21122967E-027
    180.36946   6.85926293E-027
    180.57753   1.11407551E-026
    180.78560   1.80437704E-026
    180.99366   2.91421930E-026
    181.20173   4.69360121E-026
    181.40980   7.53851610E-026
    181.61787   1.20744659E-025
    181.82594   1.92867474E-025
    182.03401   3.07231423E-025
    182.24208   4.88083792E-025
    182.45015   7.73306653E-025
    182.65822   1.22192393E-024
    182.86629   1.92565315E-024
    183.07436   3.02663331E-024
    183.28243   4.74455768E-024
    183.49050   7.41809051E-024
    183.69857   1.15679194E-023
    183.90664   1.79924921E-023
    184.11470   2.79129996E-023
    184.32277   4.31923621E-023
    184.53084   6.66651344E-023
    184.73891   1.02633227E-022
    184.94698   1.57608868E-022
    185.15505   2.41425283E-022
    185.36312   3.68892843E-022
    185.57119   5.62262350E-022
    185.77926   8.54879591E-022
    185.98733   1.29659370E-021
    186.19540   1.96174104E-021
    186.40347   2.96090201E-021
    186.61154   4.45817085E-021
    186.81961   6.69646182E-021
    187.02768   1.00345006E-020
    187.23575   1.50007660E-020
    187.44381   2.23719586E-020
    187.65188   3.32868758E-020
    187.85995   4.94112737E-020
    188.06802   7.31759782E-020
    188.27609   1.08119980E-019
    188.48416   1.59383638E-019
    188.69223   2.34416007E-019
    188.90030   3.43986896E-019
    189.10837   5.03631595E-019
    189.31644   7.35708483E-019
    189.52451   1.07232282E-018
    189.73258   1.55947190E-018
    189.94065   2.26290839E-018
    190.14872   3.27641554E-018
    190.35679   4.73345986E-018
    190.56485   6.82356359E-018
    190.77292   9.81525719E-018
    190.98099   1.40881856E-017
    191.18906   2.01779199E-017
    191.39713   2.88383667E-017
    191.60520   4.11284942E-017
    191.81327   5.85325937E-017
    192.02134   8.31266789E-017
    192.22941   1.17808237E-016
    192.43748   1.66612769E-016
    192.64555   2.35148988E-016
    192.85362   3.31195882E-016
    193.06169   4.65520138E-016
    193.26976   6.52992915E-016
    193.47783   9.14112418E-016
    193.68590   1.27707545E-015
    193.89396   1.78059006E-015
    194.10203   2.47768669E-015
    194.31010   3.44087158E-015
    194.51817   4.76908132E-015
    194.72624   6.59704896E-015
    194.93431   9.10789262E-015
    195.14238   1.25500017E-014
    195.35045   1.72596429E-014
    195.55852   2.36911633E-014
    195.76659   3.24572648E-014
    195.97466   4.43826034E-014
    196.18273   6.05749821E-014
    196.39080   8.25197302E-014
    196.59887   1.12204579E-013
    196.80694   1.52284572E-013
    197.01501   2.06299426E-013
    197.22307   2.78959487E-013
    197.43114   3.76521214E-013
    197.63921   5.07279287E-013
    197.84728   6.82210374E-013
    198.05535   9.15813705E-013
    198.26342   1.22720660E-012
    198.47149   1.64154966E-012
    198.67956   2.19189737E-012
    198.88763   2.92159678E-012
    199.09570   3.88739087E-012
    199.30377   5.16342645E-012
    199.51184   6.84642076E-012
    199.71991   9.06231005E-012
    199.92798   1.19747897E-011
    200.13605   1.57962650E-011
    200.34411   2.08018676E-011
    200.55218   2.73473650E-011
    200.76025   3.58920042E-011
    200.96832   4.70275977E-011
    201.17639   6.15154943E-011
    201.38446   8.03334900E-011
    201.59253   1.04735251E-010
    201.80060   1.36325457E-010
    202.00867   1.77154657E-010
    202.21674   2.29838821E-010
    202.42481   2.97709740E-010
    202.63288   3.85003945E-010
    202.84095   4.97099582E-010
    203.04902   6.40812959E-010
    203.25709   8.24769154E-010
    203.46516   1.05986443E-009
    203.67322   1.35984225E-009
    203.88129   1.74200966E-009
    204.08936   2.22812672E-009
    204.29743   2.84550912E-009
    204.50550   3.62839274E-009
    204.71357   4.61961983E-009
    204.92164   5.87271917E-009
    205.12971   7.45446822E-009
    205.33778   9.44804402E-009
    205.54585   1.19568920E-008
    205.75392   1.51094687E-008
    205.96199   1.90650472E-008
    206.17006   2.40208114E-008
    206.37813   3.02205132E-008
    206.58620   3.79650196E-008
    206.79426   4.76251431E-008
    207.00233   5.96572255E-008
    207.21040   7.46220381E-008
    207.41847   9.32076684E-008
    207.62654   1.16257193E-007
    207.83461   1.44802087E-007
    208.04268   1.80102502E-007
    208.25075   2.23695743E-007
    208.45882   2.77454544E-007
    208.66689   3.43657000E-007
    208.87496   4.25070377E-007
    209.08303   5.25051409E-007
    209.29110   6.47666133E-007
    209.49917   7.97832886E-007
    209.70724   9.81492674E-007
    209.91531   1.20581187E-006
    210.12337   1.47942304E-006
    210.33144   1.81271060E-006
    210.53951   2.21814934E-006
    210.74758   2.71070473E-006
    210.95565   3.30830599E-006
    211.16372   4.03240401E-006
    211.37179   4.90862870E-006
    211.57986   5.96756225E-006
    211.78793   7.24564751E-006
    211.99600   8.78625366E-006
    212.20407   1.06409247E-005
    212.41214   1.28708400E-005
    212.62021   1.55485208E-005
    212.82828   1.87598211E-005
    213.03635   2.26062476E-005
    213.24441   2.72076589E-005
    213.45248   3.27054018E-005
    213.66055   3.92659519E-005
    213.86862   4.70851312E-005
    214.07669   5.63929905E-005
    214.28476   6.74594525E-005
    214.49283   8.06008256E-005
    214.70090   9.61873124E-005
    214.90897   1.14651655E-004
    215.11704   1.36499075E-004
    215.32511   1.62318687E-004
    215.53318   1.92796586E-004
    215.74125   2.28730841E-004
    215.94932   2.71048638E-004
    216.15739   3.20825872E-004
    216.36546   3.79309491E-004
    216.57352   4.47942961E-004
    216.78159   5.28395243E-004
    216.98966   6.22593724E-004
    217.19773   7.32761602E-004
    217.40580   8.61460265E-004
    217.61387   1.01163727E-003
    217.82194   1.18668061E-003
    218.03001   1.39047999E-003
    218.23808   1.62749596E-003
    218.44615   1.90283777E-003
    218.65422   2.22235102E-003
    218.86229   2.59271611E-003
    219.07036   3.02155879E-003
    219.27843   3.51757403E-003
    219.48650   4.09066478E-003
    219.69456   4.75209705E-003
    219.90263   5.51467325E-003
    220.11070   6.39292540E-003
    220.31877   7.40333055E-003
    220.52684   8.56455037E-003
    220.73491   9.89769758E-003
    220.94298   1.14266316E-002
    221.15105   1.31782864E-002
    221.35912   1.51830336E-002
    221.56719   1.74750842E-002
    221.77526   2.00929320E-002
    221.98333   2.30798436E-002
    222.19140   2.64843974E-002
    222.39947   3.03610782E-002
    222.60754   3.47709298E-002
    222.81561   3.97822723E-002
    223.02367   4.54714888E-002
    223.23174   5.19238868E-002
    223.43981   5.92346417E-002
    223.64788   6.75098267E-002
    223.85595   7.68675384E-002
    224.06402   8.74391228E-002
    224.27209   9.93705113E-002
    224.48016   1.12823673E-001
    224.68823   1.27978195E-001
    224.89630   1.45032991E-001
    225.10437   1.64208162E-001
    225.31244   1.85747003E-001
    225.52051   2.09918176E-001
    225.72858   2.37018057E-001
    225.93665   2.67373264E-001
    226.14471   3.01343386E-001
    226.35278   3.39323914E-001
    226.56085   3.81749395E-001
    226.76892   4.29096815E-001
    226.97699   4.81889226E-001
    227.18506   5.40699632E-001
    227.39313   6.06155140E-001
    227.60120   6.78941403E-001
    227.80927   7.59807348E-001
    228.01734   8.49570225E-001
    228.22541   9.49120969E-001
    228.43348   1.05942991E+000
    228.64155   1.18155284E+000
    228.84962   1.31663740E+000
    229.05769   1.46592992E+000
    229.26576   1.63078257E+000
    229.47382   1.81266099E+000
    229.68189   2.01315226E+000
    229.88996   2.23397338E+000
    230.09803   2.47698010E+000
    230.30610   2.74417624E+000
    230.51417   3.03772354E+000
    230.72224   3.35995181E+000
    230.93031   3.71336972E+000
    231.13838   4.10067597E+000
    231.34645   4.52477098E+000
    231.55452   4.98876908E+000
    231.76259   5.49601115E+000
    231.97066   6.05007779E+000
    232.17873   6.65480297E+000
    232.38680   7.31428815E+000
    232.59486   8.03291691E+000
    232.80293   8.81537002E+000
    233.01100   9.66664099E+000
    233.21907   1.05920521E+001
    233.42714   1.15972707E+001
    233.63521   1.26883263E+001
    233.84328   1.38716277E+001
    234.05135   1.51539805E+001
    234.25942   1.65426052E+001
    234.46749   1.80451555E+001
    234.67556   1.96697369E+001
    234.88363   2.14249253E+001
    235.09170   2.33197864E+001
    235.29977   2.53638948E+001
    235.50784   2.75673530E+001
    235.71591   2.99408112E+001
    235.92397   3.24954868E+001
    236.13204   3.52431834E+001
    236.34011   3.81963105E+001
    236.54818   4.13679024E+001
    236.75625   4.47716374E+001
    236.96432   4.84218563E+001
    237.17239   5.23335806E+001
    237.38046   5.65225308E+001
    237.58853   6.10051434E+001
    237.79660   6.57985878E+001
    238.00467   7.09207826E+001
    238.21274   7.63904107E+001
    238.42081   8.22269342E+001
    238.62888   8.84506076E+001
    238.83695   9.50824911E+001
    239.04502   1.02144461E+002
    239.25308   1.09659223E+002
    239.46115   1.17650315E+002
    239.66922   1.26142123E+002
    239.87729   1.35159882E+002
    240.08536   1.44729681E+002
    240.29343   1.54878467E+002
    240.50150   1.65634050E+002
    240.70957   1.77025094E+002
    240.91764   1.89081124E+002
    241.12571   2.01832516E+002
    241.33378   2.15310492E+002
    241.54185   2.29547112E+002
    241.74992   2.44575264E+002
    241.95799   2.60428651E+002
    242.16606   2.77141774E+002
    242.37412   2.94749916E+002
    242.58219   3.13289124E+002
    242.79026   3.32796184E+002
    242.99833   3.53308597E+002
    243.20640   3.74864551E+002
    243.41447   3.97502894E+002
    243.62254   4.21263097E+002
    243.83061   4.46185225E+002
    244.03868   4.72309896E+002
    244.24675   4.99678239E+002
    244.45482   5.28331857E+002
    244.66289   5.58312779E+002
    244.87096   5.89663413E+002
    245.07903   6.22426496E+002
    245.28710   6.56645043E+002
    245.49517   6.92362292E+002
    245.70323   7.29621649E+002
    245.91130   7.68466629E+002
    246.11937   8.08940794E+002
    246.32744   8.51087692E+002
    246.53551   8.94950795E+002
    246.74358   9.40573429E+002
    246.95165   9.87998712E+002
    247.15972   1.03726948E+003
    247.36779   1.08842823E+003
    247.57586   1.14151703E+003
    247.78393   1.19657745E+003
    247.99200   1.25365053E+003
    248.20007   1.31277664E+003
    248.40814   1.37399546E+003
    248.61621   1.43734589E+003
    248.82427   1.50286598E+003
    249.03234   1.57059285E+003
    249.24041   1.64056263E+003
    249.44848   1.71281038E+003
    249.65655   1.78737002E+003
    249.86462   1.86427427E+003
    250.07269   1.94355459E+003
    250.28076   2.02524108E+003
    250.48883   2.10936247E+003
    250.69690   2.19594601E+003
    250.90497   2.28501745E+003
    251.11304   2.37660094E+003
    251.32111   2.47071903E+003
    251.52918   2.56739258E+003
    251.73725   2.66664074E+003
    251.94532   2.76848089E+003
    252.15338   2.87292861E+003
    252.36145   2.97999765E+003
    252.56952   3.08969988E+003
    252.77759   3.20204529E+003
    252.98566   3.31704195E+003
    253.19373   3.43469600E+003
    253.40180   3.55501166E+003
    253.60987   3.67799117E+003
    253.81794   3.80363485E+003
    254.02601   3.93194106E+003
    254.23408   4.06290625E+003
    254.44215   4.19652492E+003
    254.65022   4.33278971E+003
    254.85829   4.47169138E+003
    255.06636   4.61321885E+003
    255.27442   4.75735925E+003
    255.48249   4.90409798E+003
    255.69056   5.05341871E+003
    255.89863   5.20530351E+003
    256.10670   5.35973285E+003
    256.31477   5.51668571E+003
    256.52284   5.67613963E+003
    256.73091   5.83807083E+003
    256.93898   6.00245423E+003
    257.14705   6.16926365E+003
    257.35512   6.33847178E+003
    257.56319   6.51005041E+003
    257.77126   6.68397046E+003
    257.97933   6.86020211E+003
    258.18740   7.03871496E+003
    258.39547   7.21947813E+003
    258.60353   7.40246036E+003
    258.81160   7.58763024E+003
    259.01967   7.77495623E+003
    259.22774   7.96440693E+003
    259.43581   8.15595112E+003
    259.64388   8.34955800E+003
    259.85195   8.54519729E+003
    260.06002   8.74283943E+003
    260.26809   8.94245573E+003
    260.47616   9.14401852E+003
    260.68423   9.34750137E+003
    260.89230   9.55287919E+003
    261.10037   9.76012848E+003
    261.30844   9.96922746E+003
    261.51651   1.01801562E+004
    261.72457   1.03928971E+004
    261.93264   1.06074344E+004
    262.14071   1.08237551E+004
    262.34878   1.10418489E+004
    262.55685   1.12617080E+004
    262.76492   1.14833279E+004
    262.97299   1.17067070E+004
    263.18106   1.19318472E+004
    263.38913   1.21587539E+004
    263.59720   1.23874361E+004
    263.80527   1.26179067E+004
    264.01334   1.28501828E+004
    264.22141   1.30842855E+004
    264.42948   1.33202401E+004
    264.63755   1.35580769E+004
    264.84562   1.37978303E+004
    265.05368   1.40395400E+004
    265.26175   1.42832503E+004
    265.46982   1.45290107E+004
    265.67789   1.47768760E+004
    265.88596   1.50269062E+004
    266.09403   1.52791670E+004
    266.30210   1.55337295E+004
    266.51017   1.57906706E+004
    266.71824   1.60500727E+004
    266.92631   1.63120245E+004
    267.13438   1.65766204E+004
    267.34245   1.68439609E+004
    267.55052   1.71141526E+004
    267.75859   1.73873083E+004
    267.96666   1.76635469E+004
    268.17472   1.79429937E+004
    268.38279   1.82257802E+004
    268.59086   1.85120441E+004
    268.79893   1.88019296E+004
    269.00700   1.90955871E+004
    269.21507   1.93931734E+004
    269.42314   1.96948513E+004
    269.63121   2.00007902E+004
    269.83928   2.03111655E+004
    270.04735   2.06261587E+004
    270.25542   2.09459575E+004
    270.46349   2.12707556E+004
    270.67156   2.16007524E+004
    270.87963   2.19361535E+004
    271.08770   2.22771698E+004
    271.29577   2.26240179E+004
    271.50383   2.29769201E+004
    271.71190   2.33361034E+004
    271.91997   2.37018006E+004
    272.12804   2.40742489E+004
    272.33611   2.44536907E+004
    272.54418   2.48403725E+004
    272.75225   2.52345456E+004
    272.96032   2.56364651E+004
    273.16839   2.60463904E+004
    273.37646   2.64645840E+004
    273.58453   2.68913124E+004
    273.79260   2.73268449E+004
    274.00067   2.77714536E+004
    274.20874   2.82254134E+004
    274.41681   2.86890013E+004
    274.62487   2.91624964E+004
    274.83294   2.96461794E+004
    275.04101   3.01403322E+004
    275.24908   3.06452378E+004
    275.45715   3.11611798E+004
    275.66522   3.16884419E+004
    275.87329   3.22273080E+004
    276.08136   3.27780612E+004
    276.28943   3.33409840E+004
    276.49750   3.39163574E+004
    276.70557   3.45044609E+004
    276.91364   3.51055720E+004
    277.12171   3.57199655E+004
    277.32978   3.63479135E+004
    277.53785   3.69896847E+004
    277.74592   3.76455442E+004
    277.95398   3.83157527E+004
    278.16205   3.90005664E+004
    278.37012   3.97002367E+004
    278.57819   4.04150090E+004
    278.78626   4.11451234E+004
    278.99433   4.18908131E+004
    279.20240   4.26523048E+004
    279.41047   4.34298178E+004
    279.61854   4.42235640E+004
    279.82661   4.50337468E+004
    280.03468   4.58605612E+004
    280.24275   4.67041933E+004
    280.45082   4.75648197E+004
    280.65889   4.84426070E+004
    280.86696   4.93377116E+004
    281.07503   5.02502795E+004
    281.28309   5.11804451E+004
    281.49116   5.21283316E+004
    281.69923   5.30940503E+004
    281.90730   5.40777001E+004
    282.11537   5.50793673E+004
    282.32344   5.60991252E+004
    282.53151   5.71370335E+004
    282.73958   5.81931385E+004
    282.94765   5.92674721E+004
    283.15572   6.03600521E+004
    283.36379   6.14708814E+004
    283.57186   6.25999480E+004
    283.77993   6.37472245E+004
    283.98800   6.49126681E+004
    284.19607   6.60962201E+004
    284.40413   6.72978059E+004
    284.61220   6.85173346E+004
    284.82027   6.97546988E+004
    285.02834   7.10097744E+004
    285.23641   7.22824208E+004
    285.44448   7.35724803E+004
    285.65255   7.48797779E+004
    285.86062   7.62041218E+004
    286.06869   7.75453028E+004
    286.27676   7.89030943E+004
    286.48483   8.02772523E+004
    286.69290   8.16675155E+004
    286.90097   8.30736052E+004
    287.10904   8.44952252E+004
    287.31711   8.59320620E+004
    287.52518   8.73837847E+004
    287.73324   8.88500453E+004
    287.94131   9.03304785E+004
    288.14938   9.18247021E+004
    288.35745   9.33323171E+004
    288.56552   9.48529076E+004
    288.77359   9.63860413E+004
    288.98166   9.79312695E+004
    289.18973   9.94881275E+004
    289.39780   1.01056135E+005
    289.60587   1.02634795E+005
    289.81394   1.04223597E+005
    290.02201   1.05822014E+005
    290.23008   1.07429505E+005
    290.43815   1.09045515E+005
    290.64622   1.10669474E+005
    290.85428   1.12300800E+005
    291.06235   1.13938896E+005
    291.27042   1.15583154E+005
    291.47849   1.17232953E+005
    291.68656   1.18887660E+005
    291.89463   1.20546631E+005
    292.10270   1.22209211E+005
    292.31077   1.23874734E+005
    292.51884   1.25542526E+005
    292.72691   1.27211901E+005
    292.93498   1.28882167E+005
    293.14305   1.30552622E+005
    293.35112   1.32222557E+005
    293.55919   1.33891256E+005
    293.76726   1.35557996E+005
    293.97533   1.37222050E+005
    294.18339   1.38882682E+005
    294.39146   1.40539156E+005
    294.59953   1.42190728E+005
    294.80760   1.43836653E+005
    295.01567   1.45476184E+005
    295.22374   1.47108568E+005
    295.43181   1.48733055E+005
    295.63988   1.50348891E+005
    295.84795   1.51955324E+005
    296.05602   1.53551601E+005
    296.26409   1.55136972E+005
    296.47216   1.56710686E+005
    296.68023   1.58271997E+005
    296.88830   1.59820161E+005
    297.09637   1.61354438E+005
    297.30443   1.62874093E+005
    297.51250   1.64378394E+005
    297.72057   1.65866617E+005
    297.92864   1.67338043E+005
    298.13671   1.68791960E+005
    298.34478   1.70227664E+005
    298.55285   1.71644459E+005
    298.76092   1.73041657E+005
    298.96899   1.74418580E+005
    299.17706   1.75774561E+005
    299.38513   1.77108941E+005
    299.59320   1.78421074E+005
    299.80127   1.79710323E+005
    300.00934   1.80976067E+005
    300.21741   1.82217694E+005
    300.42548   1.83434607E+005
    300.63354   1.84626221E+005
    300.84161   1.85791967E+005
    301.04968   1.86931289E+005
    301.25775   1.88043647E+005
    301.46582   1.89128515E+005
    301.67389   1.90185383E+005
    301.88196   1.91213759E+005
    302.09003   1.92213164E+005
    302.29810   1.93183139E+005
    302.50617   1.94123241E+005
    302.71424   1.95033044E+005
    302.92231   1.95912140E+005
    303.13038   1.96760140E+005
    303.33845   1.97576673E+005
    303.54652   1.98361384E+005
    303.75458   1.99113940E+005
    303.96265   1.99834026E+005
    304.17072   2.00521345E+005
    304.37879   2.01175621E+005
    304.58686   2.01796597E+005
    304.79493   2.02384033E+005
    305.00300   2.02937713E+005
    305.21107   2.03457437E+005
    305.41914   2.03943027E+005
    305.62721   2.04394324E+005
    305.83528   2.04811189E+005
    306.04335   2.05193501E+005
    306.25142   2.05541163E+005
    306.45949   2.05854094E+005
    306.66756   2.06132234E+005
    306.87563   2.06375543E+005
    307.08369   2.06584000E+005
    307.29176   2.06757605E+005
    307.49983   2.06896374E+005
    307.70790   2.07000347E+005
    307.91597   2.07069578E+005
    308.12404   2.07104144E+005
    308.33211   2.07104139E+005
    308.54018   2.07069674E+005
    308.74825   2.07000880E+005
    308.95632   2.06897907E+005
    309.16439   2.06760922E+005
    309.37246   2.06590107E+005
    309.58053   2.06385666E+005
    309.78860   2.06147815E+005
    309.99667   2.05876790E+005
    310.20473   2.05572844E+005
    310.41280   2.05236242E+005
    310.62087   2.04867269E+005
    310.82894   2.04466224E+005
    311.03701   2.04033419E+005
    311.24508   2.03569184E+005
    311.45315   2.03073860E+005
    311.66122   2.02547806E+005
    311.86929   2.01991391E+005
    312.07736   2.01404997E+005
    312.28543   2.00789023E+005
    312.49350   2.00143876E+005
    312.70157   1.99469976E+005
    312.90964   1.98767756E+005
    313.11771   1.98037659E+005
    313.32578   1.97280139E+005
    313.53384   1.96495660E+005
    313.74191   1.95684697E+005
    313.94998   1.94847732E+005
    314.15805   1.93985259E+005
    314.36612   1.93097779E+005
    314.57419   1.92185801E+005
    314.78226   1.91249842E+005
    314.99033   1.90290426E+005
    315.19840   1.89308085E+005
    315.40647   1.88303356E+005
    315.61454   1.87276784E+005
    315.82261   1.86228917E+005
    316.03068   1.85160309E+005
    316.23875   1.84071520E+005
    316.44682   1.82963114E+005
    316.65488   1.81835657E+005
    316.86295   1.80689720E+005
    317.07102   1.79525877E+005
    317.27909   1.78344705E+005
    317.48716   1.77146782E+005
    317.69523   1.75932690E+005
    317.90330   1.74703010E+005
    318.11137   1.73458325E+005
    318.31944   1.72199220E+005
    318.52751   1.70926278E+005
    318.73558   1.69640084E+005
    318.94365   1.68341223E+005
    319.15172   1.67030276E+005
    319.35979   1.65707827E+005
    319.56786   1.64374456E+005
    319.77593   1.63030741E+005
    319.98399   1.61677260E+005
    320.19206   1.60314588E+005
    320.40013   1.58943296E+005
    320.60820   1.57563952E+005
    320.81627   1.56177123E+005
    321.02434   1.54783371E+005
    321.23241   1.53383253E+005
    321.44048   1.51977323E+005
    321.64855   1.50566132E+005
    321.85662   1.49150225E+005
    322.06469   1.47730140E+005
    322.27276   1.46306415E+005
    322.48083   1.44879578E+005
    322.68890   1.43450153E+005
    322.89697   1.42018659E+005
    323.10504   1.40585610E+005
    323.31310   1.39151510E+005
    323.52117   1.37716861E+005
    323.72924   1.36282155E+005
    323.93731   1.34847880E+005
    324.14538   1.33414516E+005
    324.35345   1.31982537E+005
    324.56152   1.30552407E+005
    324.76959   1.29124587E+005
    324.97766   1.27699527E+005
    325.18573   1.26277672E+005
    325.39380   1.24859458E+005
    325.60187   1.23445313E+005
    325.80994   1.22035660E+005
    326.01801   1.20630910E+005
    326.22608   1.19231469E+005
    326.43414   1.17837734E+005
    326.64221   1.16450095E+005
    326.85028   1.15068931E+005
    327.05835   1.13694616E+005
    327.26642   1.12327515E+005
    327.47449   1.10967983E+005
    327.68256   1.09616368E+005
    327.89063   1.08273010E+005
    328.09870   1.06938241E+005
    328.30677   1.05612382E+005
    328.51484   1.04295750E+005
    328.72291   1.02988649E+005
    328.93098   1.01691377E+005
    329.13905   1.00404225E+005
    329.34712   9.91274725E+004
    329.55519   9.78613931E+004
    329.76325   9.66062510E+004
    329.97132   9.53623027E+004
    330.17939   9.41297959E+004
    330.38746   9.29089707E+004
    330.59553   9.17000586E+004
    330.80360   9.05032832E+004
    331.01167   8.93188601E+004
    331.21974   8.81469968E+004
    331.42781   8.69878928E+004
    331.63588   8.58417398E+004
    331.84395   8.47087219E+004
    332.05202   8.35890150E+004
    332.26009   8.24827877E+004
    332.46816   8.13902008E+004
    332.67623   8.03114077E+004
    332.88429   7.92465543E+004
    333.09236   7.81957790E+004
    333.30043   7.71592130E+004
    333.50850   7.61369805E+004
    333.71657   7.51291982E+004
    333.92464   7.41359761E+004
    334.13271   7.31574170E+004
    334.34078   7.21936170E+004
    334.54885   7.12446655E+004
    334.75692   7.03106451E+004
    334.96499   6.93916318E+004
    335.17306   6.84876954E+004
    335.38113   6.75988988E+004
    335.58920   6.67252993E+004
    335.79727   6.58669474E+004
    336.00534   6.50238879E+004
    336.21340   6.41961595E+004
    336.42147   6.33837949E+004
    336.62954   6.25868213E+004
    336.83761   6.18052599E+004
    337.04568   6.10391266E+004
    337.25375   6.02884315E+004
    337.46182   5.95531796E+004
    337.66989   5.88333706E+004
    337.87796   5.81289988E+004
    338.08603   5.74400536E+004
    338.29410   5.67665194E+004
    338.50217   5.61083757E+004
    338.71024   5.54655971E+004
    338.91831   5.48381537E+004
    339.12638   5.42260110E+004
    339.33444   5.36291298E+004
    339.54251   5.30474668E+004
    339.75058   5.24809741E+004
    339.95865   5.19296000E+004
    340.16672   5.13932882E+004
    340.37479   5.08719787E+004
    340.58286   5.03656076E+004
    340.79093   4.98741071E+004
    340.99900   4.93974055E+004
    341.20707   4.89354278E+004
    341.41514   4.84880951E+004
    341.62321   4.80553254E+004
    341.83128   4.76370329E+004
    342.03935   4.72331288E+004
    342.24742   4.68435211E+004
    342.45549   4.64681145E+004
    342.66355   4.61068108E+004
    342.87162   4.57595087E+004
    343.07969   4.54261044E+004
    343.28776   4.51064908E+004
    343.49583   4.48005584E+004
    343.70390   4.45081951E+004
    343.91197   4.42292861E+004
    344.12004   4.39637142E+004
    344.32811   4.37113597E+004
    344.53618   4.34721008E+004
    344.74425   4.32458131E+004
    344.95232   4.30323705E+004
    345.16039   4.28316443E+004
    345.36846   4.26435041E+004
    345.57653   4.24678174E+004
    345.78459   4.23044498E+004
    345.99266   4.21532653E+004
    346.20073   4.20141257E+004
    346.40880   4.18868915E+004
    346.61687   4.17714215E+004
    346.82494   4.16675728E+004
    347.03301   4.15752011E+004
    347.24108   4.14941606E+004
    347.44915   4.14243043E+004
    347.65722   4.13654838E+004
    347.86529   4.13175493E+004
    348.07336   4.12803501E+004
    348.28143   4.12537341E+004
    348.48950   4.12375483E+004
    348.69757   4.12316387E+004
    348.90564   4.12358502E+004
    349.11370   4.12500270E+004
    349.32177   4.12740124E+004
    349.52984   4.13076487E+004
    349.73791   4.13507779E+004
    349.94598   4.14032409E+004
    350.15405   4.14648783E+004
    350.36212   4.15355298E+004
    350.57019   4.16150350E+004
    350.77826   4.17032327E+004
    350.98633   4.17999614E+004
    351.19440   4.19050594E+004
    351.40247   4.20183644E+004
    351.61054   4.21397139E+004
    351.81861   4.22689455E+004
    352.02668   4.24058963E+004
    352.23474   4.25504034E+004
    352.44281   4.27023039E+004
    352.65088   4.28614347E+004
    352.85895   4.30276329E+004
    353.06702   4.32007357E+004
    353.27509   4.33805803E+004
    353.48316   4.35670042E+004
    353.69123   4.37598449E+004
    353.89930   4.39589404E+004
    354.10737   4.41641289E+004
    354.31544   4.43752490E+004
    354.52351   4.45921396E+004
    354.73158   4.48146401E+004
    354.93965   4.50425904E+004
    355.14772   4.52758309E+004
    355.35579   4.55142026E+004
    355.56385   4.57575470E+004
    355.77192   4.60057063E+004
    355.97999   4.62585236E+004
    356.18806   4.65158424E+004
    356.39613   4.67775072E+004
    356.60420   4.70433632E+004
    356.81227   4.73132565E+004
    357.02034   4.75870342E+004
    357.22841   4.78645441E+004
    357.43648   4.81456352E+004
    357.64455   4.84301573E+004
    357.85262   4.87179615E+004
    358.06069   4.90088997E+004
    358.26876   4.93028252E+004
    358.47683   4.95995923E+004
    358.68489   4.98990565E+004
    358.89296   5.02010745E+004
    359.10103   5.05055044E+004
    359.30910   5.08122055E+004
    359.51717   5.11210386E+004
    359.72524   5.14318655E+004
    359.93331   5.17445498E+004
    360.14138   5.20589564E+004
    360.34945   5.23749516E+004
    360.55752   5.26924032E+004
    360.76559   5.30111806E+004
    360.97366   5.33311549E+004
    361.18173   5.36521984E+004
    361.38980   5.39741855E+004
    361.59787   5.42969919E+004
    361.80594   5.46204951E+004
    362.01400   5.49445744E+004
    362.22207   5.52691107E+004
    362.43014   5.55939867E+004
    362.63821   5.59190870E+004
    362.84628   5.62442978E+004
    363.05435   5.65695074E+004
    363.26242   5.68946057E+004
    363.47049   5.72194848E+004
    363.67856   5.75440384E+004
    363.88663   5.78681624E+004
    364.09470   5.81917544E+004
    364.30277   5.85147141E+004
    364.51084   5.88369434E+004
    364.71891   5.91583458E+004
    364.92698   5.94788273E+004
    365.13505   5.97982954E+004
    365.34311   6.01166603E+004
    365.55118   6.04338338E+004
    365.75925   6.07497300E+004
    365.96732   6.10642650E+004
    366.17539   6.13773573E+004
    366.38346   6.16889273E+004
    366.59153   6.19988976E+004
    366.79960   6.23071930E+004
    367.00767   6.26137404E+004
    367.21574   6.29184691E+004
    367.42381   6.32213104E+004
    367.63188   6.35221978E+004
    367.83995   6.38210671E+004
    368.04802   6.41178563E+004
    368.25609   6.44125057E+004
    368.46415   6.47049576E+004
    368.67222   6.49951568E+004
    368.88029   6.52830502E+004
    369.08836   6.55685869E+004
    369.29643   6.58517184E+004
    369.50450   6.61323982E+004
    369.71257   6.64105822E+004
    369.92064   6.66862287E+004
    370.12871   6.69592978E+004
    370.33678   6.72297522E+004
    370.54485   6.74975567E+004
    370.75292   6.77626783E+004
    370.96099   6.80250863E+004
    371.16906   6.82847521E+004
    371.37713   6.85416494E+004
    371.58520   6.87957541E+004
    371.79326   6.90470442E+004
    372.00133   6.92954998E+004
    372.20940   6.95411035E+004
    372.41747   6.97838397E+004
    372.62554   7.00236950E+004
    372.83361   7.02606583E+004
    373.04168   7.04947205E+004
    373.24975   7.07258745E+004
    373.45782   7.09541155E+004
    373.66589   7.11794405E+004
    373.87396   7.14018489E+004
    374.08203   7.16213417E+004
    374.29010   7.18379221E+004
    374.49817   7.20515954E+004
    374.70624   7.22623688E+004
    374.91430   7.24702513E+004
    375.12237   7.26752540E+004
    375.33044   7.28773897E+004
    375.53851   7.30766734E+004
    375.74658   7.32731215E+004
    375.95465   7.34667527E+004
    376.16272   7.36575871E+004
    376.37079   7.38456468E+004
    376.57886   7.40309556E+004
    376.78693   7.42135390E+004
    376.99500   7.43934241E+004
    377.20307   7.45706398E+004
    377.41114   7.47452165E+004
    377.61921   7.49171864E+004
    377.82728   7.50865830E+004
    378.03535   7.52534416E+004
    378.24341   7.54177987E+004
    378.45148   7.55796926E+004
    378.65955   7.57391628E+004
    378.86762   7.58962503E+004
    379.07569   7.60509975E+004
    379.28376   7.62034480E+004
    379.49183   7.63536468E+004
    379.69990   7.65016402E+004
    379.90797   7.66474757E+004
    380.11604   7.67912020E+004
    380.32411   7.69328688E+004
    380.53218   7.70725272E+004
    380.74025   7.72102292E+004
    380.94832   7.73460279E+004
    381.15639   7.74799773E+004
    381.36445   7.76121326E+004
    381.57252   7.77425498E+004
    381.78059   7.78712857E+004
    381.98866   7.79983981E+004
    382.19673   7.81239456E+004
    382.40480   7.82479875E+004
    382.61287   7.83705839E+004
    382.82094   7.84917957E+004
    383.02901   7.86116842E+004
    383.23708   7.87303115E+004
    383.44515   7.88477404E+004
    383.65322   7.89640339E+004
    383.86129   7.90792558E+004
    384.06936   7.91934703E+004
    384.27743   7.93067420E+004
    384.48550   7.94191358E+004
    384.69356   7.95307171E+004
    384.90163   7.96415514E+004
    385.10970   7.97517048E+004
    385.31777   7.98612433E+004
    385.52584   7.99702333E+004
    385.73391   8.00787411E+004
    385.94198   8.01868335E+004
    386.15005   8.02945770E+004
    386.35812   8.04020384E+004
    386.56619   8.05092843E+004
    386.77426   8.06163813E+004
    386.98233   8.07233961E+004
    387.19040   8.08303951E+004
    387.39847   8.09374447E+004
    387.60654   8.10446108E+004
    387.81460   8.11519594E+004
    388.02267   8.12595561E+004
    388.23074   8.13674663E+004
    388.43881   8.14757549E+004
    388.64688   8.15844865E+004
    388.85495   8.16937254E+004
    389.06302   8.18035354E+004
    389.27109   8.19139797E+004
    389.47916   8.20251212E+004
    389.68723   8.21370221E+004
    389.89530   8.22497442E+004
    390.10337   8.23633485E+004
    390.31144   8.24778954E+004
    390.51951   8.25934449E+004
    390.72758   8.27100559E+004
    390.93565   8.28277868E+004
    391.14371   8.29466954E+004
    391.35178   8.30668383E+004
    391.55985   8.31882717E+004
    391.76792   8.33110507E+004
    391.97599   8.34352296E+004
    392.18406   8.35608618E+004
    392.39213   8.36879999E+004
    392.60020   8.38166953E+004
    392.80827   8.39469988E+004
    393.01634   8.40789597E+004
    393.22441   8.42126268E+004
    393.43248   8.43480475E+004
    393.64055   8.44852683E+004
    393.84862   8.46243346E+004
    394.05669   8.47652905E+004
    394.26475   8.49081794E+004
    394.47282   8.50530430E+004
    394.68089   8.51999224E+004
    394.88896   8.53488570E+004
    395.09703   8.54998853E+004
    395.30510   8.56530445E+004
    395.51317   8.58083707E+004
    395.72124   8.59658984E+004
    395.92931   8.61256612E+004
    396.13738   8.62876912E+004
    396.34545   8.64520193E+004
    396.55352   8.66186751E+004
    396.76159   8.67876867E+004
    396.96966   8.69590811E+004
    397.17773   8.71328838E+004
    397.38580   8.73091191E+004
    397.59386   8.74878098E+004
    397.80193   8.76689773E+004
    398.01000   8.78526417E+004
    398.21807   8.80388218E+004
    398.42614   8.82275348E+004
    398.63421   8.84187966E+004
    398.84228   8.86126217E+004
    399.05035   8.88090232E+004
    399.25842   8.90080127E+004
    399.46649   8.92096006E+004
    399.67456   8.94137955E+004
    399.88263   8.96206050E+004
    400.09070   8.98300349E+004
    400.29877   9.00420899E+004
    400.50684   9.02567730E+004
    400.71490   9.04740859E+004
    400.92297   9.06940289E+004
    401.13104   9.09166009E+004
    401.33911   9.11417992E+004
    401.54718   9.13696200E+004
    401.75525   9.16000577E+004
    401.96332   9.18331056E+004
    402.17139   9.20687554E+004
    402.37946   9.23069976E+004
    402.58753   9.25478212E+004
    402.79560   9.27912137E+004
    403.00367   9.30371614E+004
    403.21174   9.32856492E+004
    403.41981   9.35366605E+004
    403.62788   9.37901776E+004
    403.83595   9.40461813E+004
    404.04401   9.43046510E+004
    404.25208   9.45655649E+004
    404.46015   9.48288998E+004
    404.66822   9.50946314E+004
    404.87629   9.53627339E+004
    405.08436   9.56331803E+004
    405.29243   9.59059424E+004
    405.50050   9.61809907E+004
    405.70857   9.64582944E+004
    405.91664   9.67378215E+004
    406.12471   9.70195391E+004
    406.33278   9.73034127E+004
    406.54085   9.75894068E+004
    406.74892   9.78774848E+004
    406.95699   9.81676090E+004
    407.16506   9.84597404E+004
    407.37312   9.87538390E+004
    407.58119   9.90498638E+004
    407.78926   9.93477726E+004
    407.99733   9.96475222E+004
    408.20540   9.99490685E+004
    408.41347   1.00252366E+005
    408.62154   1.00557369E+005
    408.82961   1.00864030E+005
    409.03768   1.01172301E+005
    409.24575   1.01482133E+005
    409.45382   1.01793476E+005
    409.66189   1.02106279E+005
    409.86996   1.02420491E+005
    410.07803   1.02736058E+005
    410.28610   1.03052929E+005
    410.49416   1.03371047E+005
    410.70223   1.03690360E+005
    410.91030   1.04010810E+005
    411.11837   1.04332343E+005
    411.32644   1.04654899E+005
    411.53451   1.04978423E+005
    411.74258   1.05302855E+005
    411.95065   1.05628136E+005
    412.15872   1.05954207E+005
    412.36679   1.06281007E+005
    412.57486   1.06608477E+005
    412.78293   1.06936553E+005
    412.99100   1.07265175E+005
    413.19907   1.07594280E+005
    413.40714   1.07923806E+005
    413.61521   1.08253688E+005
    413.82327   1.08583864E+005
    414.03134   1.08914269E+005
    414.23941   1.09244839E+005
    414.44748   1.09575510E+005
    414.65555   1.09906215E+005
    414.86362   1.10236890E+005
    415.07169   1.10567469E+005
    415.27976   1.10897886E+005
    415.48783   1.11228075E+005
    415.69590   1.11557970E+005
    415.90397   1.11887503E+005
    416.11204   1.12216609E+005
    416.32011   1.12545221E+005
    416.52818   1.12873272E+005
    416.73625   1.13200694E+005
    416.94431   1.13527421E+005
    417.15238   1.13853385E+005
    417.36045   1.14178521E+005
    417.56852   1.14502759E+005
    417.77659   1.14826035E+005
    417.98466   1.15148279E+005
    418.19273   1.15469427E+005
    418.40080   1.15789410E+005
    418.60887   1.16108162E+005
    418.81694   1.16425618E+005
    419.02501   1.16741709E+005
    419.23308   1.17056371E+005
    419.44115   1.17369537E+005
    419.64922   1.17681142E+005
    419.85729   1.17991120E+005
    420.06536   1.18299406E+005
    420.27342   1.18605935E+005
    420.48149   1.18910643E+005
    420.68956   1.19213466E+005
    420.89763   1.19514339E+005
    421.10570   1.19813199E+005
    421.31377   1.20109984E+005
    421.52184   1.20404630E+005
    421.72991   1.20697075E+005
    421.93798   1.20987258E+005
    422.14605   1.21275117E+005
    422.35412   1.21560592E+005
    422.56219   1.21843622E+005
    422.77026   1.22124148E+005
    422.97833   1.22402110E+005
    423.18640   1.22677450E+005
    423.39446   1.22950110E+005
    423.60253   1.23220032E+005
    423.81060   1.23487159E+005
    424.01867   1.23751436E+005
    424.22674   1.24012806E+005
    424.43481   1.24271215E+005
    424.64288   1.24526608E+005
    424.85095   1.24778933E+005
    425.05902   1.25028135E+005
    425.26709   1.25274164E+005
    425.47516   1.25516967E+005
    425.68323   1.25756493E+005
    425.89130   1.25992694E+005
    426.09937   1.26225520E+005
    426.30744   1.26454921E+005
    426.51551   1.26680852E+005
    426.72357   1.26903265E+005
    426.93164   1.27122113E+005
    427.13971   1.27337352E+005
    427.34778   1.27548938E+005
    427.55585   1.27756827E+005
    427.76392   1.27960976E+005
    427.97199   1.28161344E+005
    428.18006   1.28357889E+005
    428.38813   1.28550572E+005
    428.59620   1.28739353E+005
    428.80427   1.28924194E+005
    429.01234   1.29105058E+005
    429.22041   1.29281908E+005
    429.42848   1.29454709E+005
    429.63655   1.29623426E+005
    429.84461   1.29788025E+005
    430.05268   1.29948474E+005
    430.26075   1.30104740E+005
    430.46882   1.30256794E+005
    430.67689   1.30404604E+005
    430.88496   1.30548141E+005
    431.09303   1.30687379E+005
    431.30110   1.30822289E+005
    431.50917   1.30952845E+005
    431.71724   1.31079022E+005
    431.92531   1.31200797E+005
    432.13338   1.31318145E+005
    432.34145   1.31431044E+005
    432.54952   1.31539474E+005
    432.75759   1.31643413E+005
    432.96566   1.31742842E+005
    433.17372   1.31837743E+005
    433.38179   1.31928098E+005
    433.58986   1.32013891E+005
    433.79793   1.32095107E+005
    434.00600   1.32171730E+005
    434.21407   1.32243747E+005
    434.42214   1.32311146E+005
    434.63021   1.32373914E+005
    434.83828   1.32432042E+005
    435.04635   1.32485519E+005
    435.25442   1.32534336E+005
    435.46249   1.32578487E+005
    435.67056   1.32617963E+005
    435.87863   1.32652759E+005
    436.08670   1.32682870E+005
    436.29476   1.32708292E+005
    436.50283   1.32729022E+005
    436.71090   1.32745057E+005
    436.91897   1.32756397E+005
    437.12704   1.32763040E+005
    437.33511   1.32764989E+005
    437.54318   1.32762243E+005
    437.75125   1.32754805E+005
    437.95932   1.32742680E+005
    438.16739   1.32725870E+005
    438.37546   1.32704381E+005
    438.58353   1.32678219E+005
    438.79160   1.32647391E+005
    438.99967   1.32611904E+005
    439.20774   1.32571767E+005
    439.41581   1.32526989E+005
    439.62387   1.32477581E+005
    439.83194   1.32423553E+005
    440.04001   1.32364918E+005
    440.24808   1.32301688E+005
    440.45615   1.32233876E+005
    440.66422   1.32161498E+005
    440.87229   1.32084567E+005
    441.08036   1.32003101E+005
    441.28843   1.31917115E+005
    441.49650   1.31826628E+005
    441.70457   1.31731656E+005
    441.91264   1.31632220E+005
    442.12071   1.31528339E+005
    442.32878   1.31420033E+005
    442.53685   1.31307323E+005
    442.74491   1.31190231E+005
    442.95298   1.31068780E+005
    443.16105   1.30942993E+005
    443.36912   1.30812894E+005
    443.57719   1.30678506E+005
    443.78526   1.30539857E+005
    443.99333   1.30396970E+005
    444.20140   1.30249873E+005
    444.40947   1.30098594E+005
    444.61754   1.29943158E+005
    444.82561   1.29783596E+005
    445.03368   1.29619935E+005
    445.24175   1.29452205E+005
    445.44982   1.29280436E+005
    445.65789   1.29104660E+005
    445.86596   1.28924906E+005
    446.07402   1.28741206E+005
    446.28209   1.28553594E+005
    446.49016   1.28362101E+005
    446.69823   1.28166760E+005
    446.90630   1.27967606E+005
    447.11437   1.27764672E+005
    447.32244   1.27557993E+005
    447.53051   1.27347604E+005
    447.73858   1.27133541E+005
    447.94665   1.26915839E+005
    448.15472   1.26694536E+005
    448.36279   1.26469666E+005
    448.57086   1.26241269E+005
    448.77893   1.26009381E+005
    448.98700   1.25774039E+005
    449.19507   1.25535284E+005
    449.40313   1.25293152E+005
    449.61120   1.25047683E+005
    449.81927   1.24798917E+005
    450.02734   1.24546892E+005
    450.23541   1.24291648E+005
    450.44348   1.24033227E+005
    450.65155   1.23771668E+005
    450.85962   1.23507011E+005
    451.06769   1.23239298E+005
    451.27576   1.22968571E+005
    451.48383   1.22694869E+005
    451.69190   1.22418236E+005
    451.89997   1.22138713E+005
    452.10804   1.21856341E+005
    452.31611   1.21571164E+005
    452.52417   1.21283223E+005
    452.73224   1.20992562E+005
    452.94031   1.20699222E+005
    453.14838   1.20403247E+005
    453.35645   1.20104680E+005
    453.56452   1.19803564E+005
    453.77259   1.19499942E+005
    453.98066   1.19193857E+005
    454.18873   1.18885353E+005
    454.39680   1.18574474E+005
    454.60487   1.18261262E+005
    454.81294   1.17945763E+005
    455.02101   1.17628018E+005
    455.22908   1.17308072E+005
    455.43715   1.16985970E+005
    455.64522   1.16661753E+005
    455.85328   1.16335467E+005
    456.06135   1.16007155E+005
    456.26942   1.15676861E+005
    456.47749   1.15344629E+005
    456.68556   1.15010502E+005
    456.89363   1.14674524E+005
    457.10170   1.14336739E+005
    457.30977   1.13997189E+005
    457.51784   1.13655920E+005
    457.72591   1.13312974E+005
    457.93398   1.12968395E+005
    458.14205   1.12622226E+005
    458.35012   1.12274509E+005
    458.55819   1.11925289E+005
    458.76626   1.11574608E+005
    458.97432   1.11222510E+005
    459.18239   1.10869035E+005
    459.39046   1.10514229E+005
    459.59853   1.10158132E+005
    459.80660   1.09800787E+005
    460.01467   1.09442236E+005
    460.22274   1.09082522E+005
    460.43081   1.08721685E+005
    460.63888   1.08359768E+005
    460.84695   1.07996812E+005
    461.05502   1.07632858E+005
    461.26309   1.07267948E+005
    461.47116   1.06902121E+005
    461.67923   1.06535419E+005
    461.88730   1.06167882E+005
    462.09537   1.05799551E+005
    462.30343   1.05430464E+005
    462.51150   1.05060662E+005
    462.71957   1.04690185E+005
    462.92764   1.04319071E+005
    463.13571   1.03947359E+005
    463.34378   1.03575089E+005
    463.55185   1.03202298E+005
    463.75992   1.02829024E+005
    463.96799   1.02455306E+005
    464.17606   1.02081181E+005
    464.38413   1.01706687E+005
    464.59220   1.01331860E+005
    464.80027   1.00956737E+005
    465.00834   1.00581355E+005
    465.21641   1.00205749E+005
    465.42447   9.98299565E+004
    465.63254   9.94540117E+004
    465.84061   9.90779500E+004
    466.04868   9.87018066E+004
    466.25675   9.83256158E+004
    466.46482   9.79494120E+004
    466.67289   9.75732290E+004
    466.88096   9.71971005E+004
    467.08903   9.68210597E+004
    467.29710   9.64451396E+004
    467.50517   9.60693726E+004
    467.71324   9.56937910E+004
    467.92131   9.53184267E+004
    468.12938   9.49433113E+004
    468.33745   9.45684759E+004
    468.54552   9.41939514E+004
    468.75358   9.38197683E+004
    468.96165   9.34459567E+004
    469.16972   9.30725464E+004
    469.37779   9.26995668E+004
    469.58586   9.23270470E+004
    469.79393   9.19550157E+004
    470.00200   9.15835011E+004
    470.21007   9.12125313E+004
    470.41814   9.08421339E+004
    470.62621   9.04723361E+004
    470.83428   9.01031648E+004
    471.04235   8.97346464E+004
    471.25042   8.93668072E+004
    471.45849   8.89996727E+004
    471.66656   8.86332686E+004
    471.87462   8.82676197E+004
    472.08269   8.79027507E+004
    472.29076   8.75386859E+004
    472.49883   8.71754492E+004
    472.70690   8.68130640E+004
    472.91497   8.64515537E+004
    473.12304   8.60909408E+004
    473.33111   8.57312479E+004
    473.53918   8.53724970E+004
    473.74725   8.50147097E+004
    473.95532   8.46579074E+004
    474.16339   8.43021109E+004
    474.37146   8.39473409E+004
    474.57953   8.35936174E+004
    474.78760   8.32409603E+004
    474.99567   8.28893891E+004
    475.20373   8.25389228E+004
    475.41180   8.21895801E+004
    475.61987   8.18413794E+004
    475.82794   8.14943386E+004
    476.03601   8.11484754E+004
    476.24408   8.08038070E+004
    476.45215   8.04603503E+004
    476.66022   8.01181218E+004
    476.86829   7.97771378E+004
    477.07636   7.94374140E+004
    477.28443   7.90989659E+004
    477.49250   7.87618086E+004
    477.70057   7.84259568E+004
    477.90864   7.80914250E+004
    478.11671   7.77582272E+004
    478.32477   7.74263772E+004
    478.53284   7.70958883E+004
    478.74091   7.67667735E+004
    478.94898   7.64390455E+004
    479.15705   7.61127167E+004
    479.36512   7.57877990E+004
    479.57319   7.54643042E+004
    479.78126   7.51422436E+004
    479.98933   7.48216282E+004
    480.19740   7.45024687E+004
    480.40547   7.41847754E+004
    480.61354   7.38685584E+004
    480.82161   7.35538275E+004
    481.02968   7.32405919E+004
    481.23775   7.29288608E+004
    481.44582   7.26186430E+004
    481.65388   7.23099470E+004
    481.86195   7.20027807E+004
    482.07002   7.16971523E+004
    482.27809   7.13930691E+004
    482.48616   7.10905384E+004
    482.69423   7.07895672E+004
    482.90230   7.04901621E+004
    483.11037   7.01923294E+004
    483.31844   6.98960754E+004
    483.52651   6.96014057E+004
    483.73458   6.93083258E+004
    483.94265   6.90168410E+004
    484.15072   6.87269562E+004
    484.35879   6.84386761E+004
    484.56686   6.81520051E+004
    484.77492   6.78669474E+004
    484.98299   6.75835067E+004
    485.19106   6.73016867E+004
    485.39913   6.70214907E+004
    485.60720   6.67429219E+004
    485.81527   6.64659830E+004
    486.02334   6.61906767E+004
    486.23141   6.59170052E+004
    486.43948   6.56449707E+004
    486.64755   6.53745750E+004
    486.85562   6.51058198E+004
    487.06369   6.48387063E+004
    487.27176   6.45732357E+004
    487.47983   6.43094090E+004
    487.68790   6.40472269E+004
    487.89597   6.37866897E+004
    488.10403   6.35277978E+004
    488.31210   6.32705511E+004
    488.52017   6.30149495E+004
    488.72824   6.27609925E+004
    488.93631   6.25086797E+004
    489.14438   6.22580101E+004
    489.35245   6.20089827E+004
    489.56052   6.17615963E+004
    489.76859   6.15158496E+004
    489.97666   6.12717409E+004
    490.18473   6.10292684E+004
    490.39280   6.07884301E+004
    490.60087   6.05492240E+004
    490.80894   6.03116476E+004
    491.01701   6.00756984E+004
    491.22508   5.98413737E+004
    491.43314   5.96086708E+004
    491.64121   5.93775864E+004
    491.84928   5.91481176E+004
    492.05735   5.89202608E+004
    492.26542   5.86940125E+004
    492.47349   5.84693692E+004
    492.68156   5.82463269E+004
    492.88963   5.80248818E+004
    493.09770   5.78050295E+004
    493.30577   5.75867660E+004
    493.51384   5.73700867E+004
    493.72191   5.71549872E+004
    493.92998   5.69414626E+004
    494.13805   5.67295083E+004
    494.34612   5.65191193E+004
    494.55418   5.63102904E+004
    494.76225   5.61030165E+004
    494.97032   5.58972922E+004
    495.17839   5.56931121E+004
    495.38646   5.54904707E+004
    495.59453   5.52893622E+004
    495.80260   5.50897809E+004
    496.01067   5.48917208E+004
    496.21874   5.46951760E+004
    496.42681   5.45001403E+004
    496.63488   5.43066076E+004
    496.84295   5.41145715E+004
    497.05102   5.39240257E+004
    497.25909   5.37349635E+004
    497.46716   5.35473786E+004
    497.67523   5.33612640E+004
    497.88329   5.31766132E+004
    498.09136   5.29934193E+004
    498.29943   5.28116753E+004
    498.50750   5.26313743E+004
    498.71557   5.24525090E+004
    498.92364   5.22750725E+004
    499.13171   5.20990575E+004
    499.33978   5.19244566E+004
    499.54785   5.17512625E+004
    499.75592   5.15794679E+004
    499.96399   5.14090651E+004
    500.17206   5.12400466E+004
    500.38013   5.10724049E+004
    500.58820   5.09061323E+004
    500.79627   5.07412210E+004
    501.00433   5.05776633E+004
    501.21240   5.04154513E+004
    501.42047   5.02545772E+004
    501.62854   5.00950331E+004
    501.83661   4.99368111E+004
    502.04468   4.97799030E+004
    502.25275   4.96243009E+004
    502.46082   4.94699967E+004
    502.66889   4.93169823E+004
    502.87696   4.91652495E+004
    503.08503   4.90147902E+004
    503.29310   4.88655962E+004
    503.50117   4.87176591E+004
    503.70924   4.85709708E+004
    503.91731   4.84255229E+004
    504.12538   4.82813071E+004
    504.33344   4.81383152E+004
    504.54151   4.79965387E+004
    504.74958   4.78559692E+004
    504.95765   4.77165984E+004
    505.16572   4.75784178E+004
    505.37379   4.74414191E+004
    505.58186   4.73055938E+004
    505.78993   4.71709334E+004
    505.99800   4.70374296E+004
    506.20607   4.69050737E+004
    506.41414   4.67738574E+004
    506.62221   4.66437722E+004
    506.83028   4.65148096E+004
    507.03835   4.63869611E+004
    507.24642   4.62602183E+004
    507.45448   4.61345726E+004
    507.66255   4.60100157E+004
    507.87062   4.58865389E+004
    508.07869   4.57641338E+004
    508.28676   4.56427920E+004
    508.49483   4.55225050E+004
    508.70290   4.54032644E+004
    508.91097   4.52850616E+004
    509.11904   4.51678883E+004
    509.32711   4.50517361E+004
    509.53518   4.49365964E+004
    509.74325   4.48224610E+004
    509.95132   4.47093215E+004
    510.15939   4.45971694E+004
    510.36746   4.44859964E+004
    510.57553   4.43757942E+004
    510.78359   4.42665544E+004
    510.99166   4.41582689E+004
    511.19973   4.40509292E+004
    511.40780   4.39445271E+004
    511.61587   4.38390544E+004
    511.82394   4.37345028E+004
    512.03201   4.36308643E+004
    512.24008   4.35281305E+004
    512.44815   4.34262934E+004
    512.65622   4.33253448E+004
    512.86429   4.32252767E+004
    513.07236   4.31260810E+004
    513.28043   4.30277496E+004
    513.48850   4.29302745E+004
    513.69657   4.28336478E+004
    513.90463   4.27378616E+004
    514.11270   4.26429078E+004
    514.32077   4.25487785E+004
    514.52884   4.24554661E+004
    514.73691   4.23629625E+004
    514.94498   4.22712601E+004
    515.15305   4.21803510E+004
    515.36112   4.20902275E+004
    515.56919   4.20008820E+004
    515.77726   4.19123068E+004
    515.98533   4.18244942E+004
    516.19340   4.17374367E+004
    516.40147   4.16511267E+004
    516.60954   4.15655567E+004
    516.81761   4.14807192E+004
    517.02568   4.13966068E+004
    517.23374   4.13132121E+004
    517.44181   4.12305277E+004
    517.64988   4.11485462E+004
    517.85795   4.10672605E+004
    518.06602   4.09866632E+004
    518.27409   4.09067471E+004
    518.48216   4.08275051E+004
    518.69023   4.07489300E+004
    518.89830   4.06710148E+004
    519.10637   4.05937523E+004
    519.31444   4.05171356E+004
    519.52251   4.04411576E+004
    519.73058   4.03658116E+004
    519.93865   4.02910905E+004
    520.14672   4.02169875E+004
    520.35478   4.01434959E+004
    520.56285   4.00706088E+004
    520.77092   3.99983195E+004
    520.97899   3.99266214E+004
    521.18706   3.98555077E+004
    521.39513   3.97849720E+004
    521.60320   3.97150076E+004
    521.81127   3.96456081E+004
    522.01934   3.95767669E+004
    522.22741   3.95084777E+004
    522.43548   3.94407340E+004
    522.64355   3.93735295E+004
    522.85162   3.93068580E+004
    523.05969   3.92407130E+004
    523.26776   3.91750885E+004
    523.47583   3.91099783E+004
    523.68389   3.90453761E+004
    523.89196   3.89812760E+004
    524.10003   3.89176719E+004
    524.30810   3.88545578E+004
    524.51617   3.87919277E+004
    524.72424   3.87297757E+004
    524.93231   3.86680959E+004
    525.14038   3.86068826E+004
    525.34845   3.85461298E+004
    525.55652   3.84858319E+004
    525.76459   3.84259831E+004
    525.97266   3.83665779E+004
    526.18073   3.83076105E+004
    526.38880   3.82490754E+004
    526.59687   3.81909670E+004
    526.80493   3.81332799E+004
    527.01300   3.80760086E+004
    527.22107   3.80191477E+004
    527.42914   3.79626918E+004
    527.63721   3.79066356E+004
    527.84528   3.78509738E+004
    528.05335   3.77957012E+004
    528.26142   3.77408125E+004
    528.46949   3.76863026E+004
    528.67756   3.76321664E+004
    528.88563   3.75783987E+004
    529.09370   3.75249946E+004
    529.30177   3.74719490E+004
    529.50984   3.74192570E+004
    529.71791   3.73669136E+004
    529.92598   3.73149140E+004
    530.13404   3.72632534E+004
    530.34211   3.72119268E+004
    530.55018   3.71609297E+004
    530.75825   3.71102571E+004
    530.96632   3.70599045E+004
    531.17439   3.70098672E+004
    531.38246   3.69601406E+004
    531.59053   3.69107202E+004
    531.79860   3.68616013E+004
    532.00667   3.68127795E+004
    532.21474   3.67642504E+004
    532.42281   3.67160095E+004
    532.63088   3.66680524E+004
    532.83895   3.66203749E+004
    533.04702   3.65729725E+004
    533.25509   3.65258411E+004
    533.46315   3.64789763E+004
    533.67122   3.64323741E+004
    533.87929   3.63860302E+004
    534.08736   3.63399405E+004
    534.29543   3.62941010E+004
    534.50350   3.62485075E+004
    534.71157   3.62031560E+004
    534.91964   3.61580427E+004
    535.12771   3.61131634E+004
    535.33578   3.60685144E+004
    535.54385   3.60240917E+004
    535.75192   3.59798915E+004
    535.95999   3.59359099E+004
    536.16806   3.58921433E+004
    536.37613   3.58485878E+004
    536.58419   3.58052398E+004
    536.79226   3.57620955E+004
    537.00033   3.57191514E+004
    537.20840   3.56764038E+004
    537.41647   3.56338491E+004
    537.62454   3.55914838E+004
    537.83261   3.55493044E+004
    538.04068   3.55073074E+004
    538.24875   3.54654893E+004
    538.45682   3.54238468E+004
    538.66489   3.53823764E+004
    538.87296   3.53410748E+004
    539.08103   3.52999386E+004
    539.28910   3.52589646E+004
    539.49717   3.52181495E+004
    539.70524   3.51774900E+004
    539.91330   3.51369830E+004
    540.12137   3.50966253E+004
    540.32944   3.50564137E+004
    540.53751   3.50163451E+004
    540.74558   3.49764165E+004
    540.95365   3.49366247E+004
    541.16172   3.48969667E+004
    541.36979   3.48574396E+004
    541.57786   3.48180403E+004
    541.78593   3.47787659E+004
    541.99400   3.47396136E+004
    542.20207   3.47005803E+004
    542.41014   3.46616632E+004
    542.61821   3.46228596E+004
    542.82628   3.45841666E+004
    543.03434   3.45455813E+004
    543.24241   3.45071011E+004
    543.45048   3.44687232E+004
    543.65855   3.44304450E+004
    543.86662   3.43922637E+004
    544.07469   3.43541766E+004
    544.28276   3.43161813E+004
    544.49083   3.42782750E+004
    544.69890   3.42404551E+004
    544.90697   3.42027192E+004
    545.11504   3.41650647E+004
    545.32311   3.41274891E+004
    545.53118   3.40899900E+004
    545.73925   3.40525648E+004
    545.94732   3.40152111E+004
    546.15539   3.39779266E+004
    546.36345   3.39407088E+004
    546.57152   3.39035555E+004
    546.77959   3.38664642E+004
    546.98766   3.38294327E+004
    547.19573   3.37924586E+004
    547.40380   3.37555397E+004
    547.61187   3.37186738E+004
    547.81994   3.36818587E+004
    548.02801   3.36450920E+004
    548.23608   3.36083718E+004
    548.44415   3.35716958E+004
    548.65222   3.35350618E+004
    548.86029   3.34984678E+004
    549.06836   3.34619117E+004
    549.27643   3.34253914E+004
    549.48449   3.33889049E+004
    549.69256   3.33524502E+004
    549.90063   3.33160252E+004
    550.10870   3.32796279E+004
    550.31677   3.32432565E+004
    550.52484   3.32069089E+004
    550.73291   3.31705833E+004
    550.94098   3.31342777E+004
    551.14905   3.30979903E+004
    551.35712   3.30617192E+004
    551.56519   3.30254625E+004
    551.77326   3.29892185E+004
    551.98133   3.29529853E+004
    552.18940   3.29167612E+004
    552.39747   3.28805444E+004
    552.60554   3.28443331E+004
    552.81360   3.28081256E+004
    553.02167   3.27719203E+004
    553.22974   3.27357154E+004
    553.43781   3.26995093E+004
    553.64588   3.26633003E+004
    553.85395   3.26270868E+004
    554.06202   3.25908672E+004
    554.27009   3.25546399E+004
    554.47816   3.25184032E+004
    554.68623   3.24821557E+004
    554.89430   3.24458959E+004
    555.10237   3.24096221E+004
    555.31044   3.23733329E+004
    555.51851   3.23370268E+004
    555.72658   3.23007023E+004
    555.93464   3.22643580E+004
    556.14271   3.22279925E+004
    556.35078   3.21916043E+004
    556.55885   3.21551920E+004
    556.76692   3.21187542E+004
    556.97499   3.20822896E+004
    557.18306   3.20457968E+004
    557.39113   3.20092745E+004
    557.59920   3.19727214E+004
    557.80727   3.19361361E+004
    558.01534   3.18995175E+004
    558.22341   3.18628641E+004
    558.43148   3.18261748E+004
    558.63955   3.17894484E+004
    558.84762   3.17526835E+004
    559.05569   3.17158791E+004
    559.26375   3.16790339E+004
    559.47182   3.16421467E+004
    559.67989   3.16052164E+004
    559.88796   3.15682419E+004
    560.09603   3.15312220E+004
    560.30410   3.14941555E+004
    560.51217   3.14570416E+004
    560.72024   3.14198789E+004
    560.92831   3.13826665E+004
    561.13638   3.13454033E+004
    561.34445   3.13080884E+004
    561.55252   3.12707206E+004
    561.76059   3.12332989E+004
    561.96866   3.11958224E+004
    562.17673   3.11582902E+004
    562.38479   3.11207011E+004
    562.59286   3.10830544E+004
    562.80093   3.10453490E+004
    563.00900   3.10075841E+004
    563.21707   3.09697587E+004
    563.42514   3.09318719E+004
    563.63321   3.08939229E+004
    563.84128   3.08559109E+004
    564.04935   3.08178349E+004
    564.25742   3.07796941E+004
    564.46549   3.07414878E+004
    564.67356   3.07032151E+004
    564.88163   3.06648752E+004
    565.08970   3.06264674E+004
    565.29777   3.05879908E+004
    565.50584   3.05494448E+004
    565.71390   3.05108286E+004
    565.92197   3.04721414E+004
    566.13004   3.04333826E+004
    566.33811   3.03945515E+004
    566.54618   3.03556474E+004
    566.75425   3.03166696E+004
    566.96232   3.02776175E+004
    567.17039   3.02384904E+004
    567.37846   3.01992877E+004
    567.58653   3.01600088E+004
    567.79460   3.01206530E+004
    568.00267   3.00812198E+004
    568.21074   3.00417086E+004
    568.41881   3.00021189E+004
    568.62688   2.99624501E+004
    568.83494   2.99227015E+004
    569.04301   2.98828729E+004
    569.25108   2.98429635E+004
    569.45915   2.98029729E+004
    569.66722   2.97629006E+004
    569.87529   2.97227462E+004
    570.08336   2.96825091E+004
    570.29143   2.96421890E+004
    570.49950   2.96017853E+004
    570.70757   2.95612976E+004
    570.91564   2.95207256E+004
    571.12371   2.94800689E+004
    571.33178   2.94393269E+004
    571.53985   2.93984994E+004
    571.74792   2.93575860E+004
    571.95599   2.93165864E+004
    572.16405   2.92755001E+004
    572.37212   2.92343268E+004
    572.58019   2.91930663E+004
    572.78826   2.91517182E+004
    572.99633   2.91102823E+004
    573.20440   2.90687581E+004
    573.41247   2.90271456E+004
    573.62054   2.89854443E+004
    573.82861   2.89436540E+004
    574.03668   2.89017746E+004
    574.24475   2.88598057E+004
    574.45282   2.88177472E+004
    574.66089   2.87755988E+004
    574.86896   2.87333604E+004
    575.07703   2.86910317E+004
    575.28510   2.86486126E+004
    575.49316   2.86061029E+004
    575.70123   2.85635026E+004
    575.90930   2.85208113E+004
    576.11737   2.84780290E+004
    576.32544   2.84351556E+004
    576.53351   2.83921910E+004
    576.74158   2.83491350E+004
    576.94965   2.83059876E+004
    577.15772   2.82627487E+004
    577.36579   2.82194183E+004
    577.57386   2.81759962E+004
    577.78193   2.81324824E+004
    577.99000   2.80888769E+004
    578.19807   2.80451797E+004
    578.40614   2.80013907E+004
    578.61420   2.79575100E+004
    578.82227   2.79135375E+004
    579.03034   2.78694732E+004
    579.23841   2.78253173E+004
    579.44648   2.77810696E+004
    579.65455   2.77367303E+004
    579.86262   2.76922994E+004
    580.07069   2.76477769E+004
    580.27876   2.76031630E+004
    580.48683   2.75584578E+004
    580.69490   2.75136612E+004
    580.90297   2.74687734E+004
    581.11104   2.74237946E+004
    581.31911   2.73787248E+004
    581.52718   2.73335642E+004
    581.73525   2.72883129E+004
    581.94331   2.72429710E+004
    582.15138   2.71975388E+004
    582.35945   2.71520163E+004
    582.56752   2.71064038E+004
    582.77559   2.70607014E+004
    582.98366   2.70149094E+004
    583.19173   2.69690278E+004
    583.39980   2.69230570E+004
    583.60787   2.68769972E+004
    583.81594   2.68308485E+004
    584.02401   2.67846113E+004
    584.23208   2.67382857E+004
    584.44015   2.66918720E+004
    584.64822   2.66453705E+004
    584.85629   2.65987815E+004
    585.06435   2.65521052E+004
    585.27242   2.65053418E+004
    585.48049   2.64584918E+004
    585.68856   2.64115554E+004
    585.89663   2.63645329E+004
    586.10470   2.63174246E+004
    586.31277   2.62702309E+004
    586.52084   2.62229520E+004
    586.72891   2.61755884E+004
    586.93698   2.61281404E+004
    587.14505   2.60806083E+004
    587.35312   2.60329926E+004
    587.56119   2.59852934E+004
    587.76926   2.59375114E+004
    587.97733   2.58896468E+004
    588.18540   2.58417000E+004
    588.39346   2.57936715E+004
    588.60153   2.57455616E+004
    588.80960   2.56973707E+004
    589.01767   2.56490994E+004
    589.22574   2.56007479E+004
    589.43381   2.55523168E+004
    589.64188   2.55038065E+004
    589.84995   2.54552175E+004
    590.05802   2.54065501E+004
    590.26609   2.53578049E+004
    590.47416   2.53089824E+004
    590.68223   2.52600830E+004
    590.89030   2.52111071E+004
    591.09837   2.51620554E+004
    591.30644   2.51129282E+004
    591.51450   2.50637261E+004
    591.72257   2.50144496E+004
    591.93064   2.49650993E+004
    592.13871   2.49156755E+004
    592.34678   2.48661789E+004
    592.55485   2.48166100E+004
    592.76292   2.47669694E+004
    592.97099   2.47172575E+004
    593.17906   2.46674749E+004
    593.38713   2.46176223E+004
    593.59520   2.45677000E+004
    593.80327   2.45177088E+004
    594.01134   2.44676492E+004
    594.21941   2.44175217E+004
    594.42748   2.43673270E+004
    594.63555   2.43170656E+004
    594.84361   2.42667382E+004
    595.05168   2.42163453E+004
    595.25975   2.41658875E+004
    595.46782   2.41153654E+004
    595.67589   2.40647798E+004
    595.88396   2.40141311E+004
    596.09203   2.39634200E+004
    596.30010   2.39126471E+004
    596.50817   2.38618131E+004
    596.71624   2.38109186E+004
    596.92431   2.37599643E+004
    597.13238   2.37089508E+004
    597.34045   2.36578787E+004
    597.54852   2.36067487E+004
    597.75659   2.35555614E+004
    597.96465   2.35043176E+004
    598.17272   2.34530179E+004
    598.38079   2.34016630E+004
    598.58886   2.33502535E+004
    598.79693   2.32987901E+004
    599.00500   2.32472736E+004
    599.21307   2.31957045E+004
    599.42114   2.31440836E+004
    599.62921   2.30924117E+004
    599.83728   2.30406893E+004
    600.04535   2.29889172E+004
    600.25342   2.29370960E+004
    600.46149   2.28852266E+004
    600.66956   2.28333097E+004
    600.87763   2.27813458E+004
    601.08570   2.27293358E+004
    601.29376   2.26772804E+004
    601.50183   2.26251803E+004
    601.70990   2.25730362E+004
    601.91797   2.25208489E+004
    602.12604   2.24686190E+004
    602.33411   2.24163474E+004
    602.54218   2.23640348E+004
    602.75025   2.23116819E+004
    602.95832   2.22592895E+004
    603.16639   2.22068583E+004
    603.37446   2.21543890E+004
    603.58253   2.21018825E+004
    603.79060   2.20493394E+004
    603.99867   2.19967605E+004
    604.20674   2.19441466E+004
    604.41480   2.18914985E+004
    604.62287   2.18388169E+004
    604.83094   2.17861026E+004
    605.03901   2.17333563E+004
    605.24708   2.16805788E+004
    605.45515   2.16277709E+004
    605.66322   2.15749334E+004
    605.87129   2.15220670E+004
    606.07936   2.14691725E+004
    606.28743   2.14162507E+004
    606.49550   2.13633023E+004
    606.70357   2.13103282E+004
    606.91164   2.12573292E+004
    607.11971   2.12043059E+004
    607.32778   2.11512593E+004
    607.53585   2.10981901E+004
    607.74391   2.10450990E+004
    607.95198   2.09919869E+004
    608.16005   2.09388545E+004
    608.36812   2.08857027E+004
    608.57619   2.08325322E+004
    608.78426   2.07793438E+004
    608.99233   2.07261384E+004
    609.20040   2.06729167E+004
    609.40847   2.06196794E+004
    609.61654   2.05664275E+004
    609.82461   2.05131617E+004
    610.03268   2.04598828E+004
    610.24075   2.04065915E+004
    610.44882   2.03532888E+004
    610.65689   2.02999753E+004
    610.86495   2.02466519E+004
    611.07302   2.01933194E+004
    611.28109   2.01399786E+004
    611.48916   2.00866303E+004
    611.69723   2.00332752E+004
    611.90530   1.99799142E+004
    612.11337   1.99265480E+004
    612.32144   1.98731776E+004
    612.52951   1.98198035E+004
    612.73758   1.97664268E+004
    612.94565   1.97130481E+004
    613.15372   1.96596683E+004
    613.36179   1.96062881E+004
    613.56986   1.95529083E+004
    613.77793   1.94995298E+004
    613.98600   1.94461534E+004
    614.19406   1.93927798E+004
    614.40213   1.93394097E+004
    614.61020   1.92860442E+004
    614.81827   1.92326838E+004
    615.02634   1.91793294E+004
    615.23441   1.91259818E+004
    615.44248   1.90726418E+004
    615.65055   1.90193101E+004
    615.85862   1.89659876E+004
    616.06669   1.89126751E+004
    616.27476   1.88593733E+004
    616.48283   1.88060830E+004
    616.69090   1.87528049E+004
    616.89897   1.86995400E+004
    617.10704   1.86462889E+004
    617.31511   1.85930525E+004
    617.52317   1.85398314E+004
    617.73124   1.84866266E+004
    617.93931   1.84334387E+004
    618.14738   1.83802685E+004
    618.35545   1.83271169E+004
    618.56352   1.82739845E+004
    618.77159   1.82208722E+004
    618.97966   1.81677807E+004
    619.18773   1.81147108E+004
    619.39580   1.80616632E+004
    619.60387   1.80086387E+004
    619.81194   1.79556381E+004
    620.02001   1.79026621E+004
    620.22808   1.78497114E+004
    620.43615   1.77967869E+004
    620.64421   1.77438893E+004
    620.85228   1.76910193E+004
    621.06035   1.76381777E+004
    621.26842   1.75853652E+004
    621.47649   1.75325826E+004
    621.68456   1.74798306E+004
    621.89263   1.74271099E+004
    622.10070   1.73744213E+004
    622.30877   1.73217656E+004
    622.51684   1.72691433E+004
    622.72491   1.72165554E+004
    622.93298   1.71640024E+004
    623.14105   1.71114852E+004
    623.34912   1.70590044E+004
    623.55719   1.70065608E+004
    623.76526   1.69541551E+004
    623.97332   1.69017880E+004
    624.18139   1.68494602E+004
    624.38946   1.67971724E+004
    624.59753   1.67449253E+004
    624.80560   1.66927197E+004
    625.01367   1.66405562E+004
    625.22174   1.65884355E+004
    625.42981   1.65363584E+004
    625.63788   1.64843254E+004
    625.84595   1.64323374E+004
    626.05402   1.63803950E+004
    626.26209   1.63284988E+004
    626.47016   1.62766496E+004
    626.67823   1.62248480E+004
    626.88630   1.61730947E+004
    627.09436   1.61213904E+004
    627.30243   1.60697357E+004
    627.51050   1.60181314E+004
    627.71857   1.59665780E+004
    627.92664   1.59150762E+004
    628.13471   1.58636268E+004
    628.34278   1.58122303E+004
    628.55085   1.57608873E+004
    628.75892   1.57095986E+004
    628.96699   1.56583648E+004
    629.17506   1.56071865E+004
    629.38313   1.55560643E+004
    629.59120   1.55049989E+004
    629.79927   1.54539909E+004
    630.00734   1.54030410E+004
    630.21541   1.53521497E+004
    630.42347   1.53013178E+004
    630.63154   1.52505457E+004
    630.83961   1.51998341E+004
    631.04768   1.51491836E+004
    631.25575   1.50985948E+004
    631.46382   1.50480684E+004
    631.67189   1.49976049E+004
    631.87996   1.49472049E+004
    632.08803   1.48968690E+004
    632.29610   1.48465978E+004
    632.50417   1.47963918E+004
    632.71224   1.47462518E+004
    632.92031   1.46961781E+004
    633.12838   1.46461715E+004
    633.33645   1.45962324E+004
    633.54451   1.45463614E+004
    633.75258   1.44965592E+004
    633.96065   1.44468262E+004
    634.16872   1.43971630E+004
    634.37679   1.43475702E+004
    634.58486   1.42980483E+004
    634.79293   1.42485978E+004
    635.00100   1.41992194E+004
    635.20907   1.41499134E+004
    635.41714   1.41006805E+004
    635.62521   1.40515212E+004
    635.83328   1.40024360E+004
    636.04135   1.39534254E+004
    636.24942   1.39044899E+004
    636.45749   1.38556301E+004
    636.66556   1.38068464E+004
    636.87362   1.37581394E+004
    637.08169   1.37095096E+004
    637.28976   1.36609574E+004
    637.49783   1.36124834E+004
    637.70590   1.35640880E+004
    637.91397   1.35157718E+004
    638.12204   1.34675351E+004
    638.33011   1.34193785E+004
    638.53818   1.33713025E+004
    638.74625   1.33233075E+004
    638.95432   1.32753940E+004
    639.16239   1.32275624E+004
    639.37046   1.31798132E+004
    639.57853   1.31321469E+004
    639.78660   1.30845639E+004
    639.99466   1.30370646E+004
    640.20273   1.29896495E+004
    640.41080   1.29423191E+004
    640.61887   1.28950737E+004
    640.82694   1.28479138E+004
    641.03501   1.28008398E+004
    641.24308   1.27538521E+004
    641.45115   1.27069512E+004
    641.65922   1.26601374E+004
    641.86729   1.26134112E+004
    642.07536   1.25667730E+004
    642.28343   1.25202231E+004
    642.49150   1.24737620E+004
    642.69957   1.24273901E+004
    642.90764   1.23811078E+004
    643.11571   1.23349153E+004
    643.32377   1.22888132E+004
    643.53184   1.22428018E+004
    643.73991   1.21968814E+004
    643.94798   1.21510525E+004
    644.15605   1.21053153E+004
    644.36412   1.20596703E+004
    644.57219   1.20141179E+004
    644.78026   1.19686583E+004
    644.98833   1.19232919E+004
    645.19640   1.18780190E+004
    645.40447   1.18328401E+004
    645.61254   1.17877554E+004
    645.82061   1.17427652E+004
    646.02868   1.16978700E+004
    646.23675   1.16530699E+004
    646.44481   1.16083654E+004
    646.65288   1.15637568E+004
    646.86095   1.15192443E+004
    647.06902   1.14748283E+004
    647.27709   1.14305091E+004
    647.48516   1.13862869E+004
    647.69323   1.13421621E+004
    647.90130   1.12981350E+004
    648.10937   1.12542058E+004
    648.31744   1.12103749E+004
    648.52551   1.11666425E+004
    648.73358   1.11230089E+004
    648.94165   1.10794744E+004
    649.14972   1.10360392E+004
    649.35779   1.09927036E+004
    649.56586   1.09494679E+004
    649.77392   1.09063322E+004
    649.98199   1.08632970E+004
    650.19006   1.08203624E+004
    650.39813   1.07775287E+004
    650.60620   1.07347960E+004
    650.81427   1.06921647E+004
    651.02234   1.06496350E+004
    651.23041   1.06072071E+004
    651.43848   1.05648813E+004
    651.64655   1.05226577E+004
    651.85462   1.04805366E+004
    652.06269   1.04385182E+004
    652.27076   1.03966027E+004
    652.47883   1.03547903E+004
    652.68690   1.03130812E+004
    652.89496   1.02714756E+004
    653.10303   1.02299738E+004
    653.31110   1.01885759E+004
    653.51917   1.01472820E+004
    653.72724   1.01060925E+004
    653.93531   1.00650073E+004
    654.14338   1.00240269E+004
    654.35145   9.98315123E+003
    654.55952   9.94238057E+003
    654.76759   9.90171505E+003
    654.97566   9.86115484E+003
    655.18373   9.82070011E+003
    655.39180   9.78035101E+003
    655.59987   9.74010769E+003
    655.80794   9.69997029E+003
    656.01601   9.65993898E+003
    656.22407   9.62001388E+003
    656.43214   9.58019513E+003
    656.64021   9.54048287E+003
    656.84828   9.50087724E+003
    657.05635   9.46137835E+003
    657.26442   9.42198633E+003
    657.47249   9.38270131E+003
    657.68056   9.34352340E+003
    657.88863   9.30445271E+003
    658.09670   9.26548935E+003
    658.30477   9.22663344E+003
    658.51284   9.18788507E+003
    658.72091   9.14924434E+003
    658.92898   9.11071136E+003
    659.13705   9.07228621E+003
    659.34512   9.03396898E+003
    659.55318   8.99575977E+003
    659.76125   8.95765866E+003
    659.96932   8.91966571E+003
    660.17739   8.88178102E+003
    660.38546   8.84400466E+003
    660.59353   8.80633669E+003
    660.80160   8.76877719E+003
    661.00967   8.73132621E+003
    661.21774   8.69398383E+003
    661.42581   8.65675008E+003
    661.63388   8.61962504E+003
    661.84195   8.58260875E+003
    662.05002   8.54570126E+003
    662.25809   8.50890262E+003
    662.46616   8.47221286E+003
    662.67422   8.43563202E+003
    662.88229   8.39916015E+003
    663.09036   8.36279727E+003
    663.29843   8.32654342E+003
    663.50650   8.29039862E+003
    663.71457   8.25436289E+003
    663.92264   8.21843625E+003
    664.13071   8.18261873E+003
    664.33878   8.14691034E+003
    664.54685   8.11131108E+003
    664.75492   8.07582098E+003
    664.96299   8.04044002E+003
    665.17106   8.00516823E+003
    665.37913   7.97000559E+003
    665.58720   7.93495211E+003
    665.79527   7.90000777E+003
    666.00333   7.86517258E+003
    666.21140   7.83044652E+003
    666.41947   7.79582958E+003
    666.62754   7.76132174E+003
    666.83561   7.72692297E+003
    667.04368   7.69263327E+003
    667.25175   7.65845260E+003
    667.45982   7.62438094E+003
    667.66789   7.59041825E+003
    667.87596   7.55656451E+003
    668.08403   7.52281968E+003
    668.29210   7.48918371E+003
    668.50017   7.45565658E+003
    668.70824   7.42223824E+003
    668.91631   7.38892863E+003
    669.12437   7.35572772E+003
    669.33244   7.32263545E+003
    669.54051   7.28965177E+003
    669.74858   7.25677662E+003
    669.95665   7.22400995E+003
    670.16472   7.19135169E+003
    670.37279   7.15880178E+003
    670.58086   7.12636016E+003
    670.78893   7.09402675E+003
    670.99700   7.06180149E+003
    671.20507   7.02968430E+003
    671.41314   6.99767511E+003
    671.62121   6.96577384E+003
    671.82928   6.93398042E+003
    672.03735   6.90229475E+003
    672.24542   6.87071675E+003
    672.45348   6.83924634E+003
    672.66155   6.80788344E+003
    672.86962   6.77662793E+003
    673.07769   6.74547975E+003
    673.28576   6.71443878E+003
    673.49383   6.68350493E+003
    673.70190   6.65267810E+003
    673.90997   6.62195820E+003
    674.11804   6.59134510E+003
    674.32611   6.56083872E+003
    674.53418   6.53043893E+003
    674.74225   6.50014563E+003
    674.95032   6.46995871E+003
    675.15839   6.43987806E+003
    675.36646   6.40990354E+003
    675.57452   6.38003506E+003
    675.78259   6.35027248E+003
    675.99066   6.32061569E+003
    676.19873   6.29106455E+003
    676.40680   6.26161895E+003
    676.61487   6.23227876E+003
    676.82294   6.20304384E+003
    677.03101   6.17391406E+003
    677.23908   6.14488929E+003
    677.44715   6.11596939E+003
    677.65522   6.08715422E+003
    677.86329   6.05844366E+003
    678.07136   6.02983754E+003
    678.27943   6.00133574E+003
    678.48750   5.97293811E+003
    678.69557   5.94464449E+003
    678.90363   5.91645475E+003
    679.11170   5.88836873E+003
    679.31977   5.86038628E+003
    679.52784   5.83250725E+003
    679.73591   5.80473148E+003
    679.94398   5.77705881E+003
    680.15205   5.74948909E+003
    680.36012   5.72202216E+003
    680.56819   5.69465786E+003
    680.77626   5.66739601E+003
    680.98433   5.64023647E+003
    681.19240   5.61317906E+003
    681.40047   5.58622361E+003
    681.60854   5.55936996E+003
    681.81661   5.53261793E+003
    682.02467   5.50596736E+003
    682.23274   5.47941806E+003
    682.44081   5.45296987E+003
    682.64888   5.42662261E+003
    682.85695   5.40037610E+003
    683.06502   5.37423016E+003
    683.27309   5.34818461E+003
    683.48116   5.32223927E+003
    683.68923   5.29639395E+003
    683.89730   5.27064847E+003
    684.10537   5.24500265E+003
    684.31344   5.21945629E+003
    684.52151   5.19400922E+003
    684.72958   5.16866123E+003
    684.93765   5.14341214E+003
    685.14572   5.11826175E+003
    685.35378   5.09320988E+003
    685.56185   5.06825633E+003
    685.76992   5.04340089E+003
    685.97799   5.01864339E+003
    686.18606   4.99398360E+003
    686.39413   4.96942135E+003
    686.60220   4.94495642E+003
    686.81027   4.92058862E+003
    687.01834   4.89631774E+003
    687.22641   4.87214357E+003
    687.43448   4.84806592E+003
    687.64255   4.82408458E+003
    687.85062   4.80019934E+003
    688.05869   4.77641000E+003
    688.26676   4.75271633E+003
    688.47482   4.72911815E+003
    688.68289   4.70561522E+003
    688.89096   4.68220735E+003
    689.09903   4.65889431E+003
    689.30710   4.63567590E+003
    689.51517   4.61255190E+003
    689.72324   4.58952209E+003
    689.93131   4.56658626E+003
    690.13938   4.54374420E+003
    690.34745   4.52099567E+003
    690.55552   4.49834047E+003
    690.76359   4.47577837E+003
    690.97166   4.45330916E+003
    691.17973   4.43093260E+003
    691.38780   4.40864849E+003
    691.59587   4.38645659E+003
    691.80393   4.36435668E+003
    692.01200   4.34234854E+003
    692.22007   4.32043194E+003
    692.42814   4.29860665E+003
    692.63621   4.27687246E+003
    692.84428   4.25522912E+003
    693.05235   4.23367642E+003
    693.26042   4.21221413E+003
    693.46849   4.19084200E+003
    693.67656   4.16955983E+003
    693.88463   4.14836736E+003
    694.09270   4.12726438E+003
    694.30077   4.10625065E+003
    694.50884   4.08532593E+003
    694.71691   4.06449000E+003
    694.92497   4.04374262E+003
    695.13304   4.02308356E+003
    695.34111   4.00251257E+003
    695.54918   3.98202943E+003
    695.75725   3.96163390E+003
    695.96532   3.94132575E+003
    696.17339   3.92110472E+003
    696.38146   3.90097060E+003
    696.58953   3.88092314E+003
    696.79760   3.86096210E+003
    697.00567   3.84108724E+003
    697.21374   3.82129832E+003
    697.42181   3.80159511E+003
    697.62988   3.78197736E+003
    697.83795   3.76244483E+003
    698.04602   3.74299729E+003
    698.25408   3.72363448E+003
    698.46215   3.70435618E+003
    698.67022   3.68516212E+003
    698.87829   3.66605209E+003
    699.08636   3.64702582E+003
    699.29443   3.62808308E+003
    699.50250   3.60922363E+003
    699.71057   3.59044722E+003
    699.91864   3.57175360E+003
    700.12671   3.55314253E+003
    700.33478   3.53461378E+003
    700.54285   3.51616708E+003
    700.75092   3.49780220E+003
    700.95899   3.47951889E+003
    701.16706   3.46131691E+003
    701.37513   3.44319601E+003
    701.58319   3.42515594E+003
    701.79126   3.40719646E+003
    701.99933   3.38931732E+003
    702.20740   3.37151827E+003
    702.41547   3.35379907E+003
    702.62354   3.33615948E+003
    702.83161   3.31859923E+003
    703.03968   3.30111809E+003
    703.24775   3.28371581E+003
    703.45582   3.26639214E+003
    703.66389   3.24914683E+003
    703.87196   3.23197964E+003
    704.08003   3.21489031E+003
    704.28810   3.19787860E+003
    704.49617   3.18094427E+003
    704.70423   3.16408705E+003
    704.91230   3.14730671E+003
    705.12037   3.13060300E+003
    705.32844   3.11397566E+003
    705.53651   3.09742445E+003
    705.74458   3.08094912E+003
    705.95265   3.06454943E+003
    706.16072   3.04822511E+003
    706.36879   3.03197594E+003
    706.57686   3.01580165E+003
    706.78493   2.99970199E+003
    706.99300   2.98367673E+003
    707.20107   2.96772561E+003
    707.40914   2.95184838E+003
    707.61721   2.93604479E+003
    707.82528   2.92031461E+003
    708.03334   2.90465756E+003
    708.24141   2.88907342E+003
    708.44948   2.87356193E+003
    708.65755   2.85812285E+003
    708.86562   2.84275591E+003
    709.07369   2.82746089E+003
    709.28176   2.81223753E+003
    709.48983   2.79708558E+003
    709.69790   2.78200479E+003
    709.90597   2.76699492E+003
    710.11404   2.75205572E+003
    710.32211   2.73718695E+003
    710.53018   2.72238835E+003
    710.73825   2.70765968E+003
    710.94632   2.69300069E+003
    711.15438   2.67841114E+003
    711.36245   2.66389077E+003
    711.57052   2.64943936E+003
    711.77859   2.63505664E+003
    711.98666   2.62074237E+003
    712.19473   2.60649631E+003
    712.40280   2.59231821E+003
    712.61087   2.57820782E+003
    712.81894   2.56416491E+003
    713.02701   2.55018922E+003
    713.23508   2.53628052E+003
    713.44315   2.52243855E+003
    713.65122   2.50866308E+003
    713.85929   2.49495386E+003
    714.06736   2.48131064E+003
    714.27543   2.46773319E+003
    714.48349   2.45422126E+003
    714.69156   2.44077461E+003
    714.89963   2.42739299E+003
    715.10770   2.41407617E+003
    715.31577   2.40082390E+003
    715.52384   2.38763594E+003
    715.73191   2.37451205E+003
    715.93998   2.36145198E+003
    716.14805   2.34845551E+003
    716.35612   2.33552238E+003
    716.56419   2.32265236E+003
    716.77226   2.30984521E+003
    716.98033   2.29710069E+003
    717.18840   2.28441856E+003
    717.39647   2.27179858E+003
    717.60453   2.25924051E+003
    717.81260   2.24674412E+003
    718.02067   2.23430917E+003
    718.22874   2.22193541E+003
    718.43681   2.20962262E+003
    718.64488   2.19737056E+003
    718.85295   2.18517899E+003
    719.06102   2.17304768E+003
    719.26909   2.16097638E+003
    719.47716   2.14896487E+003
    719.68523   2.13701292E+003
    719.89330   2.12512028E+003
    720.10137   2.11328672E+003
    720.30944   2.10151201E+003
    720.51751   2.08979592E+003
    720.72558   2.07813822E+003
    720.93364   2.06653867E+003
    721.14171   2.05499704E+003
    721.34978   2.04351310E+003
    721.55785   2.03208662E+003
    721.76592   2.02071736E+003
    721.97399   2.00940511E+003
    722.18206   1.99814963E+003
    722.39013   1.98695069E+003
    722.59820   1.97580806E+003
    722.80627   1.96472151E+003
    723.01434   1.95369082E+003
    723.22241   1.94271576E+003
    723.43048   1.93179610E+003
    723.63855   1.92093162E+003
    723.84662   1.91012209E+003
    724.05468   1.89936728E+003
    724.26275   1.88866697E+003
    724.47082   1.87802094E+003
    724.67889   1.86742897E+003
    724.88696   1.85689082E+003
    725.09503   1.84640627E+003
    725.30310   1.83597511E+003
    725.51117   1.82559711E+003
    725.71924   1.81527206E+003
    725.92731   1.80499972E+003
    726.13538   1.79477988E+003
    726.34345   1.78461232E+003
    726.55152   1.77449682E+003
    726.75959   1.76443315E+003
    726.96766   1.75442112E+003
    727.17573   1.74446048E+003
    727.38379   1.73455104E+003
    727.59186   1.72469256E+003
    727.79993   1.71488484E+003
    728.00800   1.70512765E+003
    728.21607   1.69542079E+003
    728.42414   1.68576404E+003
    728.63221   1.67615718E+003
    728.84028   1.66660000E+003
    729.04835   1.65709229E+003
    729.25642   1.64763383E+003
    729.46449   1.63822442E+003
    729.67256   1.62886384E+003
    729.88063   1.61955187E+003
    730.08870   1.61028832E+003
    730.29677   1.60107297E+003
    730.50483   1.59190561E+003
    730.71290   1.58278603E+003
    730.92097   1.57371402E+003
    731.12904   1.56468938E+003
    731.33711   1.55571190E+003
    731.54518   1.54678138E+003
    731.75325   1.53789760E+003
    731.96132   1.52906036E+003
    732.16939   1.52026946E+003
    732.37746   1.51152469E+003
    732.58553   1.50282584E+003
    732.79360   1.49417273E+003
    733.00167   1.48556513E+003
    733.20974   1.47700286E+003
    733.41781   1.46848571E+003
    733.62588   1.46001347E+003
    733.83394   1.45158596E+003
    734.04201   1.44320296E+003
    734.25008   1.43486428E+003
    734.45815   1.42656973E+003
    734.66622   1.41831909E+003
    734.87429   1.41011219E+003
    735.08236   1.40194881E+003
    735.29043   1.39382876E+003
    735.49850   1.38575185E+003
    735.70657   1.37771789E+003
    735.91464   1.36972667E+003
    736.12271   1.36177800E+003
    736.33078   1.35387170E+003
    736.53885   1.34600756E+003
    736.74692   1.33818540E+003
    736.95498   1.33040502E+003
    737.16305   1.32266624E+003
    737.37112   1.31496886E+003
    737.57919   1.30731270E+003
    737.78726   1.29969755E+003
    737.99533   1.29212325E+003
    738.20340   1.28458959E+003
    738.41147   1.27709639E+003
    738.61954   1.26964347E+003
    738.82761   1.26223063E+003
    739.03568   1.25485770E+003
    739.24375   1.24752448E+003
    739.45182   1.24023080E+003
    739.65989   1.23297646E+003
    739.86796   1.22576129E+003
    740.07603   1.21858510E+003
    740.28409   1.21144772E+003
    740.49216   1.20434895E+003
    740.70023   1.19728863E+003
    740.90830   1.19026656E+003
    741.11637   1.18328257E+003
    741.32444   1.17633649E+003
    741.53251   1.16942812E+003
    741.74058   1.16255730E+003
    741.94865   1.15572385E+003
    742.15672   1.14892759E+003
    742.36479   1.14216834E+003
    742.57286   1.13544593E+003
    742.78093   1.12876019E+003
    742.98900   1.12211093E+003
    743.19707   1.11549800E+003
    743.40514   1.10892121E+003
    743.61320   1.10238038E+003
    743.82127   1.09587536E+003
    744.02934   1.08940597E+003
    744.23741   1.08297204E+003
    744.44548   1.07657339E+003
    744.65355   1.07020987E+003
    744.86162   1.06388129E+003
    745.06969   1.05758750E+003
    745.27776   1.05132832E+003
    745.48583   1.04510358E+003
    745.69390   1.03891313E+003
    745.90197   1.03275680E+003
    746.11004   1.02663441E+003
    746.31811   1.02054581E+003
    746.52618   1.01449084E+003
    746.73424   1.00846932E+003
    746.94231   1.00248109E+003
    747.15038   9.96526005E+002
    747.35845   9.90603888E+002
    747.56652   9.84714582E+002
    747.77459   9.78857926E+002
    747.98266   9.73033762E+002
    748.19073   9.67241929E+002
    748.39880   9.61482270E+002
    748.60687   9.55754626E+002
    748.81494   9.50058839E+002
    749.02301   9.44394754E+002
    749.23108   9.38762213E+002
    749.43915   9.33161062E+002
    749.64722   9.27591145E+002
    749.85529   9.22052308E+002
    750.06335   9.16544396E+002
    750.27142   9.11067258E+002
    750.47949   9.05620739E+002
    750.68756   9.00204688E+002
    750.89563   8.94818953E+002
    751.10370   8.89463384E+002
    751.31177   8.84137830E+002
    751.51984   8.78842142E+002
    751.72791   8.73576169E+002
    751.93598   8.68339765E+002
    752.14405   8.63132780E+002
    752.35212   8.57955067E+002
    752.56019   8.52806480E+002
    752.76826   8.47686872E+002
    752.97633   8.42596097E+002
    753.18439   8.37534011E+002
    753.39246   8.32500468E+002
    753.60053   8.27495326E+002
    753.80860   8.22518440E+002
    754.01667   8.17569668E+002
    754.22474   8.12648867E+002
    754.43281   8.07755896E+002
    754.64088   8.02890614E+002
    754.84895   7.98052880E+002
    755.05702   7.93242555E+002
    755.26509   7.88459498E+002
    755.47316   7.83703572E+002
    755.68123   7.78974638E+002
    755.88930   7.74272557E+002
    756.09737   7.69597194E+002
    756.30544   7.64948412E+002
    756.51350   7.60326074E+002
    756.72157   7.55730045E+002
    756.92964   7.51160191E+002
    757.13771   7.46616376E+002
    757.34578   7.42098468E+002
    757.55385   7.37606333E+002
    757.76192   7.33139838E+002
    757.96999   7.28698851E+002
    758.17806   7.24283241E+002
    758.38613   7.19892877E+002
    758.59420   7.15527629E+002
    758.80227   7.11187365E+002
    759.01034   7.06871958E+002
    759.21841   7.02581279E+002
    759.42648   6.98315198E+002
    759.63454   6.94073589E+002
    759.84261   6.89856324E+002
    760.05068   6.85663276E+002
    760.25875   6.81494321E+002
    760.46682   6.77349331E+002
    760.67489   6.73228182E+002
    760.88296   6.69130750E+002
    761.09103   6.65056911E+002
    761.29910   6.61006541E+002
    761.50717   6.56979517E+002
    761.71524   6.52975717E+002
    761.92331   6.48995020E+002
    762.13138   6.45037304E+002
    762.33945   6.41102448E+002
    762.54752   6.37190332E+002
    762.75559   6.33300837E+002
    762.96365   6.29433843E+002
    763.17172   6.25589232E+002
    763.37979   6.21766885E+002
    763.58786   6.17966685E+002
    763.79593   6.14188515E+002
    764.00400   6.10432258E+002
    764.21207   6.06697799E+002
    764.42014   6.02985021E+002
    764.62821   5.99293811E+002
    764.83628   5.95624052E+002
    765.04435   5.91975632E+002
    765.25242   5.88348436E+002
    765.46049   5.84742352E+002
    765.66856   5.81157268E+002
    765.87663   5.77593071E+002
    766.08469   5.74049649E+002
    766.29276   5.70526893E+002
    766.50083   5.67024691E+002
    766.70890   5.63542934E+002
    766.91697   5.60081512E+002
    767.12504   5.56640316E+002
    767.33311   5.53219238E+002
    767.54118   5.49818169E+002
    767.74925   5.46437002E+002
    767.95732   5.43075631E+002
    768.16539   5.39733948E+002
    768.37346   5.36411848E+002
    768.58153   5.33109225E+002
    768.78960   5.29825975E+002
    768.99767   5.26561992E+002
    769.20574   5.23317172E+002
    769.41380   5.20091412E+002
    769.62187   5.16884609E+002
    769.82994   5.13696660E+002
    770.03801   5.10527463E+002
    770.24608   5.07376916E+002
    770.45415   5.04244918E+002
    770.66222   5.01131368E+002
    770.87029   4.98036167E+002
    771.07836   4.94959213E+002
    771.28643   4.91900409E+002
    771.49450   4.88859654E+002
    771.70257   4.85836851E+002
    771.91064   4.82831901E+002
    772.11871   4.79844708E+002
    772.32678   4.76875174E+002
    772.53484   4.73923202E+002
    772.74291   4.70988696E+002
    772.95098   4.68071562E+002
    773.15905   4.65171702E+002
    773.36712   4.62289024E+002
    773.57519   4.59423432E+002
    773.78326   4.56574832E+002
    773.99133   4.53743132E+002
    774.19940   4.50928238E+002
    774.40747   4.48130057E+002
    774.61554   4.45348499E+002
    774.82361   4.42583470E+002
    775.03168   4.39834880E+002
    775.23975   4.37102638E+002
    775.44782   4.34386654E+002
    775.65589   4.31686837E+002
    775.86395   4.29003099E+002
    776.07202   4.26335351E+002
    776.28009   4.23683503E+002
    776.48816   4.21047467E+002
    776.69623   4.18427157E+002
    776.90430   4.15822484E+002
    777.11237   4.13233362E+002
    777.32044   4.10659704E+002
    777.52851   4.08101424E+002
    777.73658   4.05558437E+002
    777.94465   4.03030658E+002
    778.15272   4.00518001E+002
    778.36079   3.98020382E+002
    778.56886   3.95537717E+002
    778.77693   3.93069923E+002
    778.98499   3.90616917E+002
    779.19306   3.88178616E+002
    779.40113   3.85754938E+002
    779.60920   3.83345800E+002
    779.81727   3.80951121E+002
    780.02534   3.78570821E+002
    780.23341   3.76204818E+002
    780.44148   3.73853032E+002
    780.64955   3.71515383E+002
    780.85762   3.69191792E+002
    781.06569   3.66882180E+002
    781.27376   3.64586468E+002
    781.48183   3.62304577E+002
    781.68990   3.60036430E+002
    781.89797   3.57781949E+002
    782.10604   3.55541058E+002
    782.31410   3.53313678E+002
    782.52217   3.51099735E+002
    782.73024   3.48899151E+002
    782.93831   3.46711852E+002
    783.14638   3.44537762E+002
    783.35445   3.42376806E+002
    783.56252   3.40228910E+002
    783.77059   3.38094000E+002
    783.97866   3.35972002E+002
    784.18673   3.33862843E+002
    784.39480   3.31766449E+002
    784.60287   3.29682748E+002
    784.81094   3.27611668E+002
    785.01901   3.25553138E+002
    785.22708   3.23507085E+002
    785.43515   3.21473438E+002
    785.64321   3.19452127E+002
    785.85128   3.17443081E+002
    786.05935   3.15446230E+002
    786.26742   3.13461505E+002
    786.47549   3.11488836E+002
    786.68356   3.09528154E+002
    786.89163   3.07579391E+002
    787.09970   3.05642478E+002
    787.30777   3.03717348E+002
    787.51584   3.01803932E+002
    787.72391   2.99902164E+002
    787.93198   2.98011977E+002
    788.14005   2.96133304E+002
    788.34812   2.94266079E+002
    788.55619   2.92410237E+002
    788.76425   2.90565711E+002
    788.97232   2.88732437E+002
    789.18039   2.86910350E+002
    789.38846   2.85099385E+002
    789.59653   2.83299478E+002
    789.80460   2.81510565E+002
    790.01267   2.79732584E+002
    790.22074   2.77965470E+002
    790.42881   2.76209161E+002
    790.63688   2.74463595E+002
    790.84495   2.72728709E+002
    791.05302   2.71004441E+002
    791.26109   2.69290731E+002
    791.46916   2.67587516E+002
    791.67723   2.65894736E+002
    791.88530   2.64212331E+002
    792.09336   2.62540240E+002
    792.30143   2.60878403E+002
    792.50950   2.59226761E+002
    792.71757   2.57585254E+002
    792.92564   2.55953824E+002
    793.13371   2.54332411E+002
    793.34178   2.52720958E+002
    793.54985   2.51119407E+002
    793.75792   2.49527699E+002
    793.96599   2.47945778E+002
    794.17406   2.46373586E+002
    794.38213   2.44811066E+002
    794.59020   2.43258162E+002
    794.79827   2.41714818E+002
    795.00634   2.40180978E+002
    795.21440   2.38656586E+002
    795.42247   2.37141587E+002
    795.63054   2.35635926E+002
    795.83861   2.34139548E+002
    796.04668   2.32652399E+002
    796.25475   2.31174425E+002
    796.46282   2.29705572E+002
    796.67089   2.28245786E+002
    796.87896   2.26795013E+002
    797.08703   2.25353202E+002
    797.29510   2.23920300E+002
    797.50317   2.22496253E+002
    797.71124   2.21081010E+002
    797.91931   2.19674520E+002
    798.12738   2.18276729E+002
    798.33545   2.16887588E+002
    798.54351   2.15507045E+002
    798.75158   2.14135050E+002
    798.95965   2.12771552E+002
    799.16772   2.11416500E+002
    799.37579   2.10069846E+002
    799.58386   2.08731538E+002
    799.79193   2.07401529E+002
    800.00000   2.06079769E+002
